# Please cite arXiv:2005.07200
# The chisq between visible neutrino decay with the given parameters and the IceCube data assuming an initial flavor ratio (1:2:0) for various couplings (all six couplings equal) and initial spectral indices
# m_1 is taken to be zero
# The first row is the parameters:
#   z
# The next two rows define the grid:
#   Couplings
#   gamma
# The remaining rows are the chisq test statistic where the first row is for the smallest coupling and of increasing values of gamma and the second row is of increasing value of the coupling and so on
1
1e-09 1.09648e-09 1.20226e-09 1.31826e-09 1.44544e-09 1.58489e-09 1.7378e-09 1.90546e-09 2.0893e-09 2.29087e-09 2.51189e-09 2.75423e-09 3.01995e-09 3.31131e-09 3.63078e-09 3.98107e-09 4.36516e-09 4.7863e-09 5.24807e-09 5.7544e-09 6.30957e-09 6.91831e-09 7.58578e-09 8.31764e-09 9.12011e-09 1e-08 1.09648e-08 1.20226e-08 1.31826e-08 1.44544e-08 1.58489e-08 1.7378e-08 1.90546e-08 2.0893e-08 2.29087e-08 2.51189e-08 2.75423e-08 3.01995e-08 3.31131e-08 3.63078e-08 3.98107e-08 4.36516e-08 4.7863e-08 5.24807e-08 5.7544e-08 6.30957e-08 6.91831e-08 7.58578e-08 8.31764e-08 9.12011e-08 1e-07 1.09648e-07 1.20226e-07 1.31826e-07 1.44544e-07 1.58489e-07 1.7378e-07 1.90546e-07 2.0893e-07 2.29087e-07 2.51189e-07 2.75423e-07 3.01995e-07 3.31131e-07 3.63078e-07 3.98107e-07 4.36516e-07 4.7863e-07 5.24807e-07 5.7544e-07 6.30957e-07 6.91831e-07 7.58578e-07 8.31764e-07 9.12011e-07 1e-06 1.09648e-06 1.20226e-06 1.31826e-06 1.44544e-06 1.58489e-06 1.7378e-06 1.90546e-06 2.0893e-06 2.29087e-06 2.51189e-06 2.75423e-06 3.01995e-06 3.31131e-06 3.63078e-06 3.98107e-06 4.36516e-06 4.7863e-06 5.24807e-06 5.7544e-06 6.30957e-06 6.91831e-06 7.58578e-06 8.31764e-06 9.12011e-06 1e-05 
2 2.015 2.03 2.045 2.06 2.075 2.09 2.105 2.12 2.135 2.15 2.165 2.18 2.195 2.21 2.225 2.24 2.255 2.27 2.285 2.3 2.315 2.33 2.345 2.36 2.375 2.39 2.405 2.42 2.435 2.45 2.465 2.48 2.495 2.51 2.525 2.54 2.555 2.57 2.585 2.6 2.615 2.63 2.645 2.66 2.675 2.69 2.705 2.72 2.735 2.75 2.765 2.78 2.795 2.81 2.825 2.84 2.855 2.87 2.885 2.9 2.915 2.93 2.945 2.96 2.975 2.99 3.005 3.02 3.035 3.05 3.065 3.08 3.095 3.11 3.125 3.14 3.155 3.17 3.185 3.2 3.215 3.23 3.245 3.26 3.275 3.29 3.305 3.32 3.335 3.35 3.365 3.38 3.395 3.41 3.425 3.44 3.455 3.47 3.485 3.5 
79.4611 75.4933 71.6438 67.9129 64.3004 60.8064 57.4308 54.1737 51.035 48.0148 45.1131 42.3299 39.6651 37.1187 34.6908 32.3814 30.1905 28.118 26.164 24.3284 22.6113 21.0127 19.5325 18.1708 16.9275 15.8027 14.7964 13.9085 13.1391 12.4882 11.9557 11.5417 11.2461 11.0691 11.0104 11.0703 11.2486 11.5453 11.9605 12.4942 13.1464 13.917 14.8061 15.8136 16.9396 18.1841 19.547 21.0284 22.6282 24.3466 26.1833 28.1386 30.2123 32.4044 34.7151 37.1442 39.6917 42.3577 45.1422 48.0452 51.0666 54.2065 57.4648 60.8416 64.3368 67.9506 71.6828 75.5334 79.5025 83.5901 87.7961 92.1206 96.5636 101.125 105.805 110.603 115.52 120.555 125.709 130.981 136.372 141.881 147.509 153.255 159.119 165.102 171.204 177.424 183.762 190.219 196.794 203.488 210.3 217.231 224.28 231.448 238.734 246.138 253.661 261.303 269.063 
79.4636 75.4956 71.6461 67.9151 64.3025 60.8084 57.4327 54.1755 51.0368 48.0165 45.1147 42.3313 39.6665 37.12 34.6921 32.3826 30.1915 28.1189 26.1648 24.3292 22.612 21.0132 19.533 18.1711 16.9278 15.8029 14.7965 13.9085 13.139 12.488 11.9554 11.5413 11.2457 11.0685 11.0098 11.0695 11.2477 11.5444 11.9595 12.4931 13.1451 13.9156 14.8046 15.812 16.9379 18.1823 19.5451 21.0264 22.6262 24.3444 26.1811 28.1362 30.2098 32.4019 34.7124 37.1414 39.6888 42.3548 45.1391 48.042 51.0633 54.2031 57.4613 60.838 64.3331 67.9468 71.6788 75.5294 79.4984 83.5859 87.7918 92.1162 96.5591 101.12 105.8 110.598 115.515 120.55 125.704 130.976 136.367 141.876 147.503 153.249 159.114 165.096 171.198 177.418 183.756 190.213 196.788 203.481 210.294 217.224 224.273 231.441 238.727 246.131 253.654 261.295 269.055 
79.4666 75.4985 71.6489 67.9177 64.305 60.8108 57.435 54.1777 51.0389 48.0185 45.1166 42.3331 39.6681 37.1216 34.6935 32.3839 30.1928 28.1201 26.1658 24.3301 22.6128 21.0139 19.5335 18.1716 16.9281 15.8031 14.7966 13.9085 13.1389 12.4878 11.9551 11.5408 11.2451 11.0678 11.0089 11.0686 11.2466 11.5432 11.9582 12.4917 13.1436 13.914 14.8028 15.8102 16.9359 18.1802 19.5429 21.0241 22.6237 24.3418 26.1783 28.1334 30.2068 32.3988 34.7092 37.1381 39.6854 42.3512 45.1354 48.0382 51.0593 54.199 57.4571 60.8337 64.3287 67.9422 71.6741 75.5246 79.4934 83.5808 87.7866 92.1109 96.5536 101.115 105.794 110.593 115.509 120.544 125.698 130.97 136.36 141.869 147.496 153.242 159.107 165.089 171.191 177.41 183.748 190.205 196.78 203.474 210.286 217.216 224.265 231.432 238.718 246.122 253.645 261.286 269.046 
79.4701 75.5019 71.6522 67.9209 64.3081 60.8137 57.4378 54.1804 51.0414 48.0209 45.1189 42.3353 39.6702 37.1235 34.6953 32.3855 30.1942 28.1214 26.1671 24.3312 22.6137 21.0147 19.5342 18.1722 16.9286 15.8034 14.7967 13.9085 13.1388 12.4875 11.9547 11.5403 11.2444 11.0669 11.008 11.0674 11.2454 11.5418 11.9567 12.49 13.1418 13.912 14.8007 15.8079 16.9335 18.1776 19.5402 21.0212 22.6207 24.3387 26.1751 28.1299 30.2033 32.3951 34.7053 37.1341 39.6812 42.3469 45.131 48.0336 51.0546 54.1941 57.452 60.8285 64.3233 67.9367 71.6685 75.5188 79.4875 83.5747 87.7804 92.1045 96.5471 101.108 105.788 110.586 115.502 120.537 125.69 130.962 136.352 141.861 147.488 153.234 159.098 165.081 171.182 177.401 183.739 190.196 196.771 203.464 210.276 217.206 224.255 231.422 238.708 246.112 253.635 261.276 269.035 
79.4744 75.506 71.6562 67.9247 64.3118 60.8173 57.4412 54.1836 51.0445 48.0238 45.1216 42.3379 39.6726 37.1258 34.6974 32.3875 30.196 28.1231 26.1685 24.3325 22.6149 21.0157 19.535 18.1728 16.9291 15.8038 14.7969 13.9085 13.1386 12.4872 11.9542 11.5396 11.2436 11.0659 11.0068 11.0661 11.2439 11.5401 11.9548 12.488 13.1396 13.9097 14.7982 15.8052 16.9307 18.1746 19.537 21.0178 22.6171 24.3349 26.1711 28.1258 30.199 32.3906 34.7007 37.1292 39.6762 42.3417 45.1256 48.028 51.0489 54.1882 57.446 60.8222 64.3169 67.9301 71.6617 75.5118 79.4803 83.5674 87.7728 92.0968 96.5392 101.1 105.779 110.577 115.493 120.528 125.681 130.953 136.343 141.852 147.479 153.224 159.088 165.07 171.171 177.391 183.728 190.185 196.759 203.453 210.264 217.194 224.243 231.41 238.696 246.1 253.622 261.263 269.022 
79.4795 75.511 71.6609 67.9293 64.3162 60.8215 57.4453 54.1875 51.0482 48.0273 45.1249 42.341 39.6755 37.1285 34.6999 32.3898 30.1982 28.125 26.1703 24.334 22.6162 21.0169 19.536 18.1736 16.9297 15.8042 14.7971 13.9085 13.1384 12.4868 11.9536 11.5388 11.2426 11.0647 11.0054 11.0645 11.2421 11.5381 11.9526 12.4855 13.1369 13.9068 14.7951 15.8019 16.9272 18.1709 19.5331 21.0137 22.6128 24.3304 26.1664 28.1209 30.1938 32.3852 34.6951 37.1234 39.6702 42.3355 45.1192 48.0214 51.042 54.1811 57.4387 60.8147 64.3092 67.9221 71.6535 75.5034 79.4717 83.5585 87.7638 92.0875 96.5297 101.09 105.769 110.567 115.483 120.518 125.67 130.942 136.332 141.84 147.467 153.212 159.076 165.058 171.159 177.378 183.715 190.172 196.746 203.439 210.25 217.18 224.229 231.395 238.681 246.084 253.607 261.247 269.006 
79.4857 75.517 71.6667 67.9348 64.3215 60.8266 57.4501 54.1921 51.0526 48.0315 45.1289 42.3447 39.679 37.1318 34.703 32.3927 30.2008 28.1274 26.1724 24.3359 22.6179 21.0183 19.5372 18.1746 16.9304 15.8046 14.7974 13.9085 13.1382 12.4863 11.9528 11.5379 11.2413 11.0633 11.0037 11.0625 11.2399 11.5357 11.9499 12.4826 13.1338 13.9034 14.7915 15.798 16.923 18.1665 19.5284 21.0088 22.6076 24.3249 26.1607 28.1149 30.1876 32.3788 34.6884 37.1165 39.663 42.328 45.1115 48.0134 51.0338 54.1726 57.4299 60.8057 64.2999 67.9126 71.6437 75.4933 79.4614 83.5479 87.7529 92.0764 96.5183 101.079 105.758 110.555 115.471 120.505 125.658 130.929 136.318 141.826 147.453 153.198 159.061 165.043 171.144 177.363 183.7 190.156 196.73 203.423 210.234 217.163 224.211 231.378 238.663 246.066 253.588 261.229 268.988 
79.4931 75.5241 71.6736 67.9415 64.3279 60.8327 57.456 54.1977 51.0579 48.0365 45.1337 42.3492 39.6832 37.1357 34.7067 32.3961 30.2039 28.1302 26.175 24.3382 22.6199 21.0201 19.5387 18.1757 16.9312 15.8052 14.7976 13.9085 13.1379 12.4857 11.952 11.5367 11.2399 11.0615 11.0017 11.0602 11.2372 11.5327 11.9467 12.4791 13.1299 13.8993 14.7871 15.7933 16.918 18.1612 19.5228 21.0029 22.6014 24.3184 26.1539 28.1078 30.1802 32.371 34.6803 37.1081 39.6543 42.319 45.1022 48.0038 51.0238 54.1624 57.4194 60.7948 64.2887 67.9011 71.6319 75.4812 79.449 83.5352 87.7399 92.063 96.5046 101.065 105.743 110.54 115.456 120.49 125.642 130.913 136.302 141.81 147.436 153.181 159.044 165.025 171.125 177.344 183.681 190.136 196.71 203.403 210.214 217.143 224.191 231.357 238.642 246.045 253.566 261.206 268.965 
79.502 75.5327 71.6819 67.9495 64.3355 60.84 57.463 54.2044 51.0643 48.0426 45.1394 42.3546 39.6883 37.1405 34.7111 32.4002 30.2077 28.1336 26.1781 24.341 22.6223 21.0221 19.5404 18.1771 16.9323 15.8059 14.798 13.9085 13.1376 12.485 11.9509 11.5353 11.2382 11.0595 10.9992 11.0574 11.2341 11.5292 11.9428 12.4749 13.1254 13.8943 14.7817 15.7876 16.912 18.1548 19.516 20.9957 22.5939 24.3106 26.1457 28.0992 30.1712 32.3617 34.6706 37.098 39.6439 42.3082 45.091 47.9922 51.0119 54.1501 57.4067 60.7818 64.2753 67.8873 71.6178 75.4667 79.4341 83.5199 87.7242 92.0469 96.4882 101.048 105.726 110.523 115.438 120.471 125.623 130.894 136.283 141.79 147.416 153.16 159.023 165.004 171.104 177.322 183.658 190.113 196.687 203.379 210.189 217.118 224.166 231.331 238.616 246.019 253.54 261.179 268.938 
79.5128 75.5431 71.6918 67.9591 64.3447 60.8489 57.4714 54.2125 51.072 48.0499 45.1463 42.3611 39.6944 37.1462 34.7164 32.4051 30.2122 28.1378 26.1818 24.3443 22.6252 21.0246 19.5425 18.1788 16.9335 15.8068 14.7984 13.9086 13.1371 12.4842 11.9497 11.5337 11.2361 11.0569 10.9963 11.0541 11.2303 11.525 11.9382 12.4698 13.1199 13.8884 14.7754 15.7808 16.9047 18.1471 19.5079 20.9872 22.5849 24.3011 26.1358 28.0889 30.1605 32.3505 34.659 37.086 39.6314 42.2952 45.0776 47.9783 50.9976 54.1353 57.3915 60.7661 64.2592 67.8707 71.6007 75.4492 79.4161 83.5015 87.7053 92.0276 96.4684 101.028 105.705 110.501 115.416 120.449 125.601 130.871 136.259 141.766 147.391 153.135 158.997 164.978 171.077 177.295 183.631 190.086 196.659 203.35 210.16 217.089 224.136 231.301 238.585 245.987 253.508 261.147 268.905 
79.5257 75.5555 71.7038 67.9706 64.3558 60.8595 57.4816 54.2222 51.0812 48.0586 45.1546 42.3689 39.7018 37.1531 34.7228 32.411 30.2176 28.1427 26.1862 24.3482 22.6287 21.0276 19.545 18.1808 16.935 15.8078 14.7989 13.9086 13.1367 12.4832 11.9482 11.5316 11.2336 11.0539 10.9927 11.05 11.2257 11.5199 11.9326 12.4637 13.1132 13.8812 14.7677 15.7726 16.896 18.1379 19.4982 20.9769 22.5741 24.2898 26.1239 28.0765 30.1476 32.3371 34.645 37.0714 39.6163 42.2796 45.0614 47.9617 50.9804 54.1175 57.3732 60.7472 64.2398 67.8508 71.5802 75.4282 79.3945 83.4794 87.6827 92.0044 96.4446 101.003 105.68 110.476 115.39 120.423 125.574 130.843 136.231 141.737 147.362 153.105 158.967 164.947 171.046 177.263 183.599 190.053 196.625 203.316 210.125 217.053 224.1 231.264 238.548 245.949 253.47 261.108 268.865 
79.5411 75.5705 71.7182 67.9845 64.3691 60.8722 57.4938 54.2338 51.0923 48.0692 45.1645 42.3783 39.7106 37.1613 34.7305 32.4181 30.2241 28.1486 26.1916 24.353 22.6329 21.0312 19.548 18.1832 16.9369 15.809 14.7996 13.9086 13.1361 12.482 11.9464 11.5292 11.2305 11.0503 10.9885 11.0452 11.2203 11.5138 11.9259 12.4563 13.1053 13.8727 14.7585 15.7628 16.8856 18.1268 19.4864 20.9646 22.5611 24.2762 26.1097 28.0616 30.132 32.3209 34.6282 37.054 39.5982 42.2609 45.042 47.9416 50.9597 54.0962 57.3512 60.7246 64.2165 67.8268 71.5556 75.4029 79.3686 83.4528 87.6554 91.9765 96.4161 100.974 105.651 110.445 115.359 120.391 125.541 130.81 136.197 141.703 147.327 153.069 158.93 164.91 171.008 177.224 183.559 190.013 196.584 203.275 210.083 217.011 224.056 231.22 238.503 245.904 253.424 261.061 268.818 
79.5598 75.5884 71.7356 68.0011 64.3851 60.8876 57.5085 54.2478 51.1056 48.0818 45.1765 42.3896 39.7212 37.1712 34.7397 32.4266 30.232 28.1558 26.198 24.3587 22.6379 21.0355 19.5516 18.1861 16.939 15.8104 14.8003 13.9086 13.1354 12.4806 11.9442 11.5264 11.2269 11.0459 10.9834 11.0393 11.2137 11.5065 11.9178 12.4475 13.0957 13.8624 14.7475 15.751 16.873 18.1135 19.4724 20.9497 22.5455 24.2598 26.0925 28.0437 30.1134 32.3014 34.608 37.033 39.5764 42.2384 45.0187 47.9175 50.9348 54.0706 57.3248 60.6974 64.1885 67.7981 71.5261 75.3725 79.3375 83.4209 87.6227 91.943 96.3818 100.939 105.615 110.409 115.321 120.352 125.502 130.77 136.156 141.661 147.284 153.026 158.887 164.865 170.962 177.178 183.512 189.965 196.536 203.225 210.033 216.959 224.004 231.168 238.449 245.85 253.368 261.005 268.761 
79.5821 75.61 71.7564 68.0211 64.4043 60.906 57.5261 54.2646 51.1216 48.097 45.1909 42.4032 39.7339 37.1831 34.7508 32.4369 30.2414 28.1644 26.2058 24.3656 22.644 21.0407 19.5559 18.1896 16.9417 15.8122 14.8012 13.9086 13.1345 12.4789 11.9417 11.5229 11.2226 11.0407 10.9773 11.0323 11.2058 11.4978 11.9081 12.437 13.0843 13.85 14.7342 15.7368 16.8579 18.0975 19.4555 20.9319 22.5268 24.2402 26.072 28.0222 30.0909 32.2781 34.5837 37.0078 39.5503 42.2113 44.9907 47.8886 50.905 54.0398 57.293 60.6647 64.1549 67.7635 71.4906 75.3361 79.3001 83.3825 87.5834 91.9027 96.3405 100.897 105.572 110.365 115.276 120.306 125.455 130.722 136.107 141.611 147.234 152.974 158.834 164.812 170.908 177.122 183.455 189.907 196.477 203.166 209.972 216.898 223.942 231.104 238.385 245.784 253.302 260.938 268.692 
79.609 75.636 71.7814 68.0452 64.4275 60.9281 57.5473 54.2848 51.1409 48.1153 45.2082 42.4195 39.7493 37.1975 34.7641 32.4492 30.2527 28.1747 26.2151 24.3739 22.6512 21.047 19.5611 18.1938 16.9448 15.8143 14.8023 13.9087 13.1335 12.4768 11.9386 11.5187 11.2174 11.0344 10.97 11.0239 11.1964 11.4872 11.8965 12.4243 13.0705 13.8351 14.7182 15.7198 16.8398 18.0783 19.4352 20.9105 22.5043 24.2166 26.0473 27.9964 30.064 32.2501 34.5546 36.9775 39.5189 42.1788 44.9571 47.8539 50.8691 54.0028 57.2549 60.6255 64.1145 67.722 71.4479 75.2923 79.2551 83.3364 87.5362 91.8544 96.291 100.846 105.52 110.312 115.222 120.251 125.399 130.664 136.049 141.551 147.173 152.912 158.77 164.747 170.842 177.055 183.387 189.838 196.407 203.094 209.9 216.824 223.867 231.028 238.307 245.705 253.222 260.857 268.61 
79.6414 75.6672 71.8114 68.0741 64.4552 60.9548 57.5727 54.3091 51.164 48.1373 45.229 42.4391 39.7677 37.2147 34.7801 32.464 30.2663 28.1871 26.2263 24.3839 22.66 21.0545 19.5674 18.1988 16.9486 15.8169 14.8036 13.9088 13.1324 12.4744 11.9349 11.5138 11.2111 11.0269 10.9612 11.0139 11.185 11.4746 11.8826 12.409 13.054 13.8173 14.6991 15.6994 16.8181 18.0552 19.4108 20.8848 22.4773 24.1882 26.0176 27.9654 30.0317 32.2164 34.5196 36.9412 39.4813 42.1398 44.9167 47.8122 50.826 53.9583 57.2091 60.5783 64.066 67.6721 71.3967 75.2397 79.2012 83.2811 87.4795 91.7963 96.2316 100.785 105.457 110.248 115.157 120.185 125.331 130.595 135.978 141.479 147.099 152.838 158.694 164.669 170.763 176.975 183.306 189.755 196.322 203.008 209.812 216.735 223.776 230.936 238.214 245.611 253.126 260.76 268.512 
79.6802 75.7046 71.8475 68.1088 64.4886 60.9867 57.6033 54.3383 51.1918 48.1636 45.2539 42.4627 39.7898 37.2354 34.7994 32.4818 30.2827 28.202 26.2397 24.3959 22.6705 21.0635 19.575 18.2049 16.9532 15.82 14.8052 13.9089 13.1309 12.4715 11.9304 11.5078 11.2036 11.0179 10.9506 11.0018 11.1714 11.4594 11.8659 12.3908 13.0341 13.7959 14.6761 15.6748 16.7919 18.0275 19.3815 20.854 22.4449 24.1542 25.982 27.9282 29.9929 32.176 34.4776 36.8976 39.436 42.0929 44.8683 47.7621 50.7743 53.905 57.1541 60.5217 64.0077 67.6122 71.3352 75.1765 79.1364 83.2146 87.4114 91.7265 96.1602 100.712 105.383 110.172 115.079 120.105 125.249 130.512 135.893 141.393 147.011 152.748 158.603 164.576 170.668 176.879 183.207 189.655 196.22 202.905 209.707 216.628 223.668 230.826 238.103 245.497 253.011 260.643 268.393 
79.7268 75.7496 71.8909 68.1506 64.5287 61.0252 57.6401 54.3734 51.2252 48.1954 45.2839 42.491 39.8164 37.2603 34.8225 32.5033 30.3024 28.2199 26.2559 24.4103 22.6832 21.0744 19.5841 18.2122 16.9588 15.8238 14.8072 13.909 13.1293 12.468 11.9251 11.5007 11.1947 11.0071 10.938 10.9873 11.155 11.4412 11.8458 12.3688 13.0103 13.7702 14.6486 15.6454 16.7606 17.9943 19.3464 20.8169 22.4059 24.1134 25.9392 27.8835 29.9463 32.1275 34.4271 36.8452 39.3817 42.0367 44.8101 47.7019 50.7122 53.841 57.0881 60.4538 63.9378 67.5403 71.2613 75.1007 79.0586 83.1349 87.3296 91.6428 96.0744 100.625 105.293 110.08 114.985 120.009 125.152 130.412 135.792 141.289 146.905 152.64 158.493 164.464 170.554 176.763 183.09 189.535 196.099 202.781 209.581 216.5 223.538 230.694 237.968 245.361 252.873 260.502 268.251 
79.7828 75.8037 71.943 68.2007 64.5768 61.0713 57.6842 54.4156 51.2653 48.2334 45.32 42.525 39.8484 37.2902 34.8504 32.529 30.326 28.2415 26.2754 24.4277 22.6984 21.0875 19.5951 18.2211 16.9655 15.8283 14.8095 13.9092 13.1273 12.4638 11.9188 11.4921 11.1839 10.9942 10.9228 10.9699 11.1354 11.4194 11.8217 12.3425 12.9818 13.7395 14.6155 15.6101 16.723 17.9544 19.3043 20.7725 22.3592 24.0644 25.888 27.83 29.8904 32.0693 34.3666 36.7824 39.3166 41.9692 44.7403 47.6298 50.6377 53.7641 57.009 60.3722 63.8539 67.4541 71.1727 75.0097 78.9652 83.0391 87.2315 91.5423 95.9716 100.519 105.185 109.97 114.873 119.894 125.034 130.293 135.67 141.165 146.779 152.511 158.361 164.33 170.418 176.624 182.948 189.391 195.952 202.632 209.43 216.347 223.382 230.535 237.807 245.198 252.707 260.334 268.08 
79.85 75.8686 72.0055 68.2609 64.6346 61.1267 57.7372 54.4662 51.3135 48.2792 45.3633 42.5658 39.8867 37.3261 34.8838 32.5599 30.3545 28.2674 26.2988 24.4485 22.7167 21.1033 19.6083 18.2317 16.9735 15.8338 14.8124 13.9095 13.125 12.4589 11.9112 11.482 11.1711 10.9787 10.9047 10.9491 11.112 11.3932 11.7929 12.311 12.9476 13.7026 14.5759 15.5678 16.678 17.9067 19.2538 20.7193 22.3033 24.0056 25.8265 27.7657 29.8234 31.9995 34.294 36.707 39.2384 41.8883 44.6565 47.5432 50.5484 53.672 56.914 60.2744 63.7533 67.3506 71.0664 74.9006 78.8532 82.9243 87.1138 91.4218 95.8482 100.393 105.056 109.838 114.738 119.757 124.894 130.149 135.523 141.015 146.626 152.356 158.203 164.169 170.254 176.457 182.778 189.218 195.777 202.453 209.249 216.162 223.194 230.345 237.614 245.002 252.507 260.132 267.875 
79.9308 75.9465 72.0806 68.3331 64.704 61.1933 57.8009 54.5269 51.3713 48.3341 45.4153 42.6149 39.9329 37.3692 34.924 32.5971 30.3886 28.2986 26.3269 24.4736 22.7388 21.1223 19.6242 18.2446 16.9833 15.8404 14.816 13.9099 13.1223 12.453 11.9022 11.4698 11.1558 10.9602 10.883 10.9243 11.0839 11.362 11.7584 12.2733 12.9066 13.6584 14.5285 15.5171 16.624 17.8494 19.1933 20.6555 22.2362 23.9353 25.7528 27.6887 29.7431 31.9159 34.2071 36.6167 39.1448 41.7912 44.5562 47.4395 50.4413 53.5615 56.8001 60.1572 63.6327 67.2266 70.939 74.7697 78.719 82.7866 86.9727 91.2772 95.7002 100.242 104.901 109.68 114.576 119.591 124.725 129.977 135.348 140.836 146.444 152.169 158.014 163.976 170.057 176.257 182.575 189.011 195.566 202.239 209.031 215.941 222.97 230.117 237.382 244.766 252.269 259.889 267.629 
80.0276 76.04 72.1708 68.4198 64.7873 61.2731 57.8773 54.5999 51.4408 48.4001 45.4778 42.6738 39.9882 37.421 34.9722 32.6418 30.4297 28.336 26.3607 24.5038 22.7653 21.1452 19.6434 18.26 16.9951 15.8485 14.8203 13.9105 13.1191 12.4461 11.8915 11.4553 11.1375 10.9381 10.8571 10.8945 11.0503 11.3246 11.7172 12.2282 12.8576 13.6055 14.4717 15.4564 16.5594 17.7809 19.1208 20.5791 22.1558 23.851 25.6645 27.5965 29.6469 31.8156 34.1029 36.5085 39.0325 41.675 44.4359 47.3152 50.3129 53.4291 56.6637 60.0167 63.4881 67.078 70.7862 74.6129 78.5581 82.6216 86.8036 91.104 95.5228 100.06 104.716 109.49 114.382 119.393 124.523 129.771 135.137 140.622 146.225 151.946 157.786 163.745 169.822 176.017 182.331 188.763 195.314 201.983 208.77 215.676 222.701 229.843 237.105 244.484 251.982 259.599 267.334 
80.1438 76.1522 72.2789 68.5239 64.8873 61.369 57.969 54.6874 51.5242 48.4793 45.5528 42.7446 40.0548 37.4833 35.0302 32.6954 30.4791 28.3811 26.4014 24.5401 22.7972 21.1727 19.6665 18.2787 17.0093 15.8583 14.8257 13.9114 13.1155 12.438 11.8789 11.4381 11.1158 10.9118 10.8263 10.8591 11.0103 11.2799 11.6679 12.1743 12.799 13.5422 14.4038 15.3838 16.4822 17.6989 19.0341 20.4877 22.0597 23.7501 25.5589 27.4861 29.5317 31.6957 33.9781 36.379 38.8982 41.5359 44.2919 47.1664 50.1593 53.2706 56.5003 59.8484 63.315 66.9 70.6033 74.4251 78.3654 82.424 86.6011 90.8965 95.3104 99.8428 104.494 109.263 114.15 119.156 124.281 129.524 134.885 140.365 145.963 151.679 157.514 163.468 169.54 175.73 182.039 188.466 195.011 201.675 208.458 215.359 222.378 229.516 236.772 244.146 251.639 259.251 266.981 
80.2832 76.2867 72.4085 68.6487 65.0071 61.4839 58.079 54.7925 51.6242 48.5743 45.6427 42.8295 40.1346 37.558 35.0998 32.7599 30.5384 28.4352 26.4503 24.5838 22.8357 21.2059 19.6944 18.3013 17.0266 15.8703 14.8323 13.9126 13.1114 12.4284 11.8639 11.4177 11.0899 10.8805 10.7895 10.8168 10.9625 11.2266 11.609 12.1099 12.7291 13.4667 14.3227 15.2971 16.3898 17.601 18.9305 20.3784 21.9448 23.6295 25.4326 27.3541 29.394 31.5522 33.8289 36.224 38.7375 41.3694 44.1197 46.9884 49.9755 53.0809 56.3048 59.6471 63.1079 66.687 70.3845 74.2004 78.1348 82.1875 86.3587 90.6483 95.0563 99.5827 104.227 108.991 113.872 118.872 123.991 129.228 134.583 140.057 145.649 151.36 157.189 163.136 169.202 175.386 181.689 188.11 194.649 201.307 208.084 214.978 221.992 229.123 236.373 243.742 251.229 258.834 266.558 
80.4502 76.4479 72.5639 68.7983 65.1509 61.6218 58.2109 54.9184 51.7442 48.6883 45.7507 42.9314 40.2304 37.6477 35.1834 32.8373 30.6096 28.5002 26.5091 24.6364 22.8819 21.2459 19.7281 18.3287 17.0476 15.8849 14.8405 13.9144 13.1067 12.4173 11.8463 11.3936 11.0593 10.8433 10.7457 10.7665 10.9056 11.1631 11.5389 12.0331 12.6457 13.3766 14.2259 15.1936 16.2796 17.484 18.8068 20.248 21.8075 23.4854 25.2817 27.1964 29.2294 31.3809 33.6507 36.0389 38.5455 41.1705 43.9138 46.7756 49.7557 52.8543 56.0712 59.4065 62.8603 66.4324 70.1229 73.9318 77.8591 81.9048 86.0689 90.3514 94.7523 99.2716 103.909 108.665 113.54 118.533 123.644 128.874 134.222 139.689 145.274 150.977 156.799 162.739 168.798 174.975 181.27 187.684 194.216 200.867 207.636 214.524 221.53 228.654 235.897 243.258 250.738 258.336 266.052 
80.6501 76.641 72.7501 68.9774 65.323 61.7869 58.369 55.0694 51.888 48.8249 45.8801 43.0536 40.3453 37.7554 35.2837 32.9303 30.6952 28.5783 26.5798 24.6996 22.9377 21.2941 19.7688 18.3618 17.0731 15.9027 14.8507 13.9169 13.1015 12.4044 11.8257 11.3652 11.0231 10.7993 10.6939 10.7068 10.838 11.0876 11.4555 11.9418 12.5464 13.2693 14.1106 15.0703 16.1483 17.3446 18.6593 20.0924 21.6438 23.3136 25.1018 27.0083 29.0332 31.1764 33.438 35.818 38.3163 40.9331 43.6682 46.5216 49.4935 52.5837 55.7923 59.1193 62.5646 66.1284 69.8105 73.611 77.5299 81.5672 85.7229 89.9969 94.3894 98.9002 103.529 108.277 113.143 118.127 123.23 128.451 133.791 139.249 144.825 150.52 156.333 162.265 168.315 174.483 180.77 187.175 193.699 200.341 207.102 213.98 220.978 228.093 235.327 242.68 250.151 257.74 265.448 
80.8894 76.872 72.9729 69.1919 65.5291 61.9846 58.5583 55.2502 52.0603 48.9886 46.0352 43.2001 40.4831 37.8844 35.404 33.0418 30.7979 28.6722 26.6648 24.7757 23.0048 21.3522 19.8179 18.4019 17.1041 15.9246 14.8634 13.9205 13.0959 12.3896 11.8016 11.3319 10.9805 10.7474 10.6326 10.6361 10.7579 10.998 11.3565 11.8333 12.4284 13.1418 13.9735 14.9236 15.992 17.1788 18.4838 19.9072 21.449 23.1091 24.8875 26.7842 28.7994 30.9328 33.1846 35.5548 38.0433 40.6501 43.3754 46.2189 49.1809 52.2612 55.4598 58.7768 62.2122 65.7659 69.438 73.2285 77.1374 81.1646 85.3102 89.5741 93.9565 98.4572 103.076 107.814 112.67 117.644 122.736 127.947 133.277 138.725 144.291 149.975 155.778 161.699 167.739 173.897 180.174 186.569 193.082 199.714 206.464 213.332 220.319 227.424 234.648 241.99 249.45 257.029 264.726 
81.1754 77.1482 73.2392 69.4483 65.7756 62.2211 58.7847 55.4665 52.2665 49.1846 46.221 43.3755 40.6482 38.0392 35.5483 33.1757 30.9212 28.785 26.767 24.8673 23.0857 21.4224 19.8773 18.4505 17.1419 15.9516 14.8795 13.9257 13.0901 12.3728 11.7738 11.293 10.9305 10.6863 10.5603 10.5526 10.6632 10.8921 11.2393 11.7048 12.2885 12.9906 13.8109 14.7496 15.8065 16.9818 18.2754 19.6873 21.2175 22.866 24.6328 26.5179 28.5214 30.6432 32.8833 35.2417 37.7185 40.3136 43.027 45.8588 48.8089 51.8773 55.0641 58.3692 61.7927 65.3345 68.9947 72.7732 76.67 80.6852 84.8188 89.0707 93.441 97.9296 102.537 107.262 112.106 117.068 122.148 127.347 132.664 138.1 143.654 149.326 155.117 161.026 167.053 173.199 179.463 185.846 192.346 198.966 205.703 212.56 219.534 226.627 233.838 241.168 248.616 256.182 263.867 
81.5169 77.4781 73.5573 69.7547 66.0701 62.5037 59.0553 55.7251 52.513 49.419 46.4432 43.5855 40.8459 38.2245 35.7212 33.3361 31.0692 28.9204 26.8898 24.9774 23.1832 21.5071 19.9493 18.5096 17.1882 15.9849 14.8999 13.933 13.0844 12.354 11.7419 11.2479 10.8722 10.6147 10.4755 10.4545 10.5517 10.7672 11.101 11.553 12.1233 12.8118 13.6186 14.5436 15.587 16.7486 18.0284 19.4266 20.943 22.5778 24.3308 26.2021 28.1917 30.2996 32.5257 34.8702 37.333 39.9141 42.6135 45.4312 48.3672 51.4215 54.5942 57.8851 61.2944 64.822 68.468 72.2322 76.1148 80.1157 84.2349 88.4725 92.8284 97.3027 101.895 106.606 111.435 116.383 121.449 126.633 131.936 137.357 142.896 148.554 154.33 160.224 166.237 172.368 178.618 184.986 191.472 198.077 204.799 211.641 218.6 225.679 232.875 240.19 247.623 255.174 262.844 
81.924 77.8713 73.9367 70.1201 66.4215 62.8409 59.3783 56.0339 52.8074 49.699 46.7087 43.8365 41.0823 38.4463 35.9283 33.5284 31.2466 29.0829 27.0374 25.11 23.3007 21.6095 20.0364 18.5815 17.2448 16.0262 14.9257 13.9435 13.0794 12.3334 11.7057 11.1961 10.8047 10.5315 10.3765 10.3396 10.421 10.6206 10.9384 11.3744 11.9286 12.6011 13.3918 14.3007 15.3278 16.4732 17.7368 19.1186 20.6187 22.2371 23.9737 25.8285 27.8016 29.893 32.1026 34.4305 36.8767 39.4411 42.1239 44.9248 47.8441 50.8817 54.0375 57.3117 60.7041 64.2148 67.8438 71.5911 75.4567 79.4406 83.5428 87.7634 92.1022 96.5593 101.135 105.829 110.641 115.571 120.62 125.787 131.072 136.476 141.998 147.638 153.397 159.274 165.269 171.383 177.615 183.966 190.434 197.021 203.727 210.551 217.493 224.553 231.732 239.029 246.445 253.979 261.631 
82.4084 78.3393 74.3883 70.5551 66.8399 63.2426 59.7633 56.4019 53.1585 50.0331 47.0256 44.1362 41.3648 38.7113 36.1759 33.7585 31.4592 29.2779 27.2146 25.2694 23.4422 21.7331 20.1421 18.6691 17.3143 16.0775 14.9588 13.9582 13.0758 12.3114 11.6652 11.1371 10.7271 10.4352 10.2615 10.2059 10.2685 10.4493 10.7482 11.1652 11.7004 12.3538 13.1254 14.0152 15.0231 16.1492 17.3936 18.7561 20.2368 21.8357 23.5529 25.3882 27.3418 29.4136 31.6036 33.9118 36.3383 38.883 41.5459 44.3271 47.2265 50.2442 53.3801 56.6343 60.0067 63.4974 67.1063 70.8335 74.679 78.6428 82.7248 86.9251 91.2437 95.6805 100.236 104.909 109.701 114.611 119.639 124.786 130.051 135.434 140.935 146.555 152.293 158.15 164.124 170.217 176.429 182.758 189.206 195.773 202.457 209.26 216.182 223.221 230.379 237.655 245.05 252.563 260.194 
82.9834 78.8951 74.9246 71.0719 67.3371 63.7201 60.221 56.8397 53.5763 50.4308 47.4031 44.4934 41.7016 39.0276 36.4717 34.0336 31.7135 29.5114 27.4272 25.461 23.6127 21.8825 20.2702 18.7759 17.3997 16.1415 15.0012 13.9791 13.0749 12.2888 11.6207 11.0707 10.6388 10.3249 10.1291 10.0514 10.0918 10.2502 10.5268 10.9214 11.4342 12.0651 12.8141 13.6812 14.6665 15.7699 16.9914 18.3311 19.7889 21.3649 23.059 24.8713 26.8018 28.8504 31.0172 33.3022 35.7054 38.2268 40.8663 43.6241 46.5 49.4942 52.6065 55.8371 59.1859 62.6529 66.2381 69.9416 73.7633 77.7032 81.7613 85.9377 90.2323 94.6452 99.1763 103.826 108.593 113.479 118.483 123.606 128.846 134.205 139.683 145.278 150.992 156.824 162.774 168.843 175.03 181.335 187.758 194.3 200.96 207.738 214.635 221.65 228.783 236.035 243.404 250.893 258.499 
83.664 79.5531 75.5599 71.6843 67.9264 64.2863 60.7639 57.3592 54.0723 50.9031 47.8518 44.9182 42.1024 39.4044 36.8242 34.3619 32.0174 29.7908 27.682 25.6911 23.818 22.0629 20.4257 18.9063 17.5049 16.2214 15.0559 14.0083 13.0786 12.2669 11.5731 10.9974 10.5396 10.1998 9.97802 9.87422 9.88844 10.0207 10.2709 10.6392 11.1256 11.7299 12.4524 13.2928 14.2514 15.328 16.5227 17.8355 19.2663 20.8153 22.4823 24.2675 26.1707 28.1921 30.3316 32.5892 34.9649 37.4588 40.0708 42.801 45.6493 48.6157 51.7003 54.9031 58.224 61.6631 65.2204 68.8959 72.6895 76.6013 80.6313 84.7795 89.0459 93.4305 97.9333 102.554 107.294 112.151 117.127 122.221 127.433 132.763 138.212 143.778 149.463 155.267 161.188 167.228 173.386 179.662 186.057 192.57 199.201 205.95 212.818 219.803 226.908 234.13 241.471 248.93 256.507 
84.4669 80.3295 76.3097 72.4074 68.6226 64.9554 61.4058 57.9738 54.6594 51.4626 48.3834 45.4219 42.5781 39.852 37.2435 34.7527 32.3797 30.1244 27.9868 25.967 24.065 22.2807 20.6142 19.0655 17.6347 16.3216 15.1264 14.049 13.0894 12.2477 11.5239 10.918 10.4299 10.0598 9.80751 9.67317 9.65674 9.75825 9.97769 10.3151 10.7704 11.3437 12.035 12.8443 13.7715 14.8167 15.9799 17.2612 18.6604 20.1776 21.8129 23.5662 25.4376 27.427 29.5344 31.7599 34.1035 36.5651 39.1448 41.8426 44.6584 47.5924 50.6445 53.8146 57.1029 60.5092 64.0337 67.6763 71.4371 75.3159 79.3129 83.4281 87.6613 92.0128 96.4823 101.07 105.776 110.6 115.542 120.603 125.781 131.078 136.493 142.026 147.678 153.447 159.335 165.341 171.465 177.707 184.068 190.547 197.144 203.859 210.692 217.644 224.714 231.902 239.209 246.633 254.176 
85.4097 81.2416 77.1909 73.2575 69.4414 65.7428 62.1616 58.6978 55.3514 52.1225 49.0111 46.0172 43.1407 40.3818 37.7405 35.2167 32.8104 30.5218 28.3507 26.2973 24.3614 22.5433 20.8427 19.2599 17.7947 16.4472 15.2174 14.1053 13.111 12.2344 11.4755 10.8344 10.3111 9.90554 9.61779 9.44785 9.39571 9.4614 9.64493 9.94629 10.3655 10.9026 11.5575 12.3304 13.2211 14.2297 15.3562 16.6007 17.963 19.4433 21.0416 22.7577 24.5919 26.544 28.614 30.8021 33.1081 35.5321 38.0741 40.7341 43.5121 46.4082 49.4222 52.5543 55.8044 59.1726 62.6588 66.2631 69.9854 73.8258 77.7843 81.8608 86.0554 90.3681 94.7989 99.3478 104.015 108.8 113.703 118.724 123.864 129.122 134.497 139.991 145.603 151.333 157.182 163.148 169.233 175.435 181.756 188.195 194.753 201.428 208.222 215.134 222.164 229.312 236.578 243.963 251.466 
86.5105 82.307 78.2207 74.2515 70.3994 66.6646 63.0469 59.5464 56.1632 52.8972 49.7486 46.7172 43.8031 41.0064 38.327 35.7651 33.3205 30.9933 28.7835 26.6912 24.7164 22.859 21.1191 19.4967 17.9919 16.6046 15.3348 14.1826 13.148 12.231 11.4316 10.7498 10.1857 9.73919 9.41036 9.19921 9.10574 9.12997 9.27191 9.53157 9.90896 10.4041 11.017 11.7476 12.5961 13.5623 14.6463 15.8481 17.1678 18.6052 20.1605 21.8337 23.6247 25.5336 27.5603 29.7049 31.9674 34.3478 36.8461 39.4624 42.1965 45.0486 48.0186 51.1065 54.3124 57.6363 61.0781 64.638 68.3157 72.1115 76.0253 80.0571 84.2069 88.4746 92.8605 97.3643 101.986 106.726 111.584 116.56 121.654 126.866 132.196 137.645 143.211 148.895 154.698 160.619 166.657 172.814 179.089 185.482 191.993 198.622 205.37 212.235 219.219 226.321 233.541 240.879 248.335 
87.7866 83.5428 79.4158 75.4057 71.5125 67.7362 64.0769 60.5345 57.1092 53.8009 50.6096 47.5354 44.5782 41.7382 39.0154 36.4097 33.9212 31.5499 29.2958 27.159 25.1394 23.2371 21.4521 19.7845 18.2342 16.8012 15.4856 14.2874 13.2066 12.2433 11.3974 10.6689 10.058 9.56449 9.18851 8.93005 8.78913 8.76576 8.85996 9.07173 9.40109 9.84805 10.4126 11.0949 11.8947 12.8122 13.8474 15.0003 16.2708 17.6591 19.165 20.7887 22.5301 24.3893 26.3662 28.4609 30.6734 33.0037 35.4518 38.0176 40.7013 43.5028 46.4222 49.4594 52.6144 55.8873 59.2781 62.7868 66.4133 70.1578 74.0201 78.0004 82.0986 86.3147 90.6487 95.1007 99.6707 104.359 109.164 114.088 119.13 124.29 129.568 134.963 140.477 146.109 151.859 157.727 163.713 169.816 176.038 182.378 188.836 195.413 202.107 208.919 215.849 222.898 230.064 237.349 244.751 
89.2525 84.9632 80.7904 76.7341 72.7944 68.9714 65.265 61.6752 58.2023 54.846 51.6065 48.4839 45.478 42.5891 39.817 37.1618 34.6236 32.2023 29.898 27.7107 25.6404 23.6873 21.8511 20.1321 18.5303 17.0455 15.6779 14.4276 13.2944 12.2784 11.3797 10.5983 9.93415 9.3873 8.95778 8.64559 8.45076 8.37331 8.41325 8.57059 8.84536 9.23757 9.74723 10.3744 11.119 11.9811 12.9607 14.0579 15.2726 16.6049 18.0547 19.6221 21.3071 23.1098 25.03 27.0679 29.2234 31.4966 33.8875 36.396 39.0223 41.7662 44.6279 47.6073 50.7044 53.9193 57.2519 60.7023 64.2705 67.9565 71.7602 75.6818 79.7212 83.8784 88.1535 92.5464 97.0571 101.686 106.432 111.297 116.279 121.379 126.597 131.933 137.387 142.959 148.648 154.456 160.382 166.425 172.587 178.866 185.264 191.779 198.413 205.164 212.034 219.021 226.126 233.35 240.691 
90.9166 86.5766 82.3528 78.2452 74.2538 70.3787 66.6199 62.9774 59.4513 56.0417 52.7485 49.5718 46.5116 43.5679 40.7409 38.0304 35.4366 32.9595 30.5991 28.3554 26.2285 24.2184 22.3251 20.5486 18.889 17.3463 15.9205 14.6117 13.4198 12.345 11.3871 10.5463 9.82254 9.21587 8.72631 8.35388 8.0986 7.96048 7.93955 8.03583 8.24934 8.58009 9.02811 9.59341 10.276 11.0759 11.9932 13.0278 14.1798 15.4492 16.8359 18.3401 19.9618 21.7008 23.5574 25.5314 27.6229 29.8319 32.1585 34.6026 37.1642 39.8434 42.6402 45.5546 48.5865 51.7361 55.0033 58.3882 61.8907 65.5108 69.2487 73.1042 77.0774 81.1684 85.377 89.7034 94.1475 98.7094 103.389 108.186 113.102 118.135 123.285 128.554 133.94 139.444 145.067 150.806 156.664 162.64 168.733 174.945 181.274 187.721 194.286 200.969 207.77 214.689 221.725 228.88 236.153 
92.7768 88.3816 84.1021 79.9383 75.8904 71.9584 68.1423 64.4421 60.8579 57.3898 54.0377 50.8017 47.6819 44.6783 41.791 39.0199 36.3651 33.8266 31.4046 29.0989 26.9097 24.837 22.8807 21.0411 19.3179 17.7114 16.2216 14.8484 13.5919 12.4521 11.429 10.5228 9.7333 9.06067 8.50489 8.06599 7.74399 7.53892 7.45081 7.47967 7.62553 7.88842 8.26835 8.76534 9.37943 10.1106 10.9589 11.9244 13.007 14.2069 15.5239 16.9582 18.5097 20.1785 21.9645 23.8679 25.8886 28.0266 30.2819 32.6547 35.1448 37.7523 40.4772 43.3196 46.2794 49.3566 52.5514 55.8636 59.2933 62.8406 66.5054 70.2877 74.1876 78.205 82.3401 86.5927 90.963 95.4508 100.056 104.78 109.62 114.579 119.655 124.849 130.16 135.59 141.137 146.801 152.584 158.484 164.502 170.638 176.891 183.262 189.752 196.358 203.083 209.926 216.886 223.964 231.161 
94.8145 90.3604 86.0216 81.798 77.6898 73.6969 69.8195 66.0576 62.4112 58.8805 55.4654 52.1659 48.9822 45.9143 42.9622 40.126 37.4057 34.8013 32.313 29.9407 27.6844 25.5443 23.5204 21.6126 19.8211 18.1458 16.5869 15.1442 13.818 12.6082 11.5148 10.5378 9.67742 8.93354 8.30621 7.79548 7.40138 7.12393 6.96316 6.91911 6.99178 7.18123 7.48746 7.91051 8.4504 9.10716 9.88081 10.7714 11.7789 12.9033 14.1448 15.5033 16.9787 18.5713 20.2809 22.1076 24.0514 26.1124 28.2905 30.5858 32.9983 35.528 38.1749 40.939 43.8205 46.8192 49.9352 53.1686 56.5192 59.9873 63.5727 67.2755 71.0956 75.0332 79.0883 83.2607 87.5507 91.9581 96.483 101.125 105.885 110.763 115.758 120.87 126.1 131.448 136.913 142.496 148.197 154.015 159.951 166.004 172.175 178.464 184.87 191.395 198.037 204.796 211.673 218.669 225.781 
96.9874 92.4726 88.0723 83.7868 79.6161 75.5602 71.6192 67.7932 64.0823 60.4865 57.0057 53.6402 50.3899 47.2549 44.2353 41.3312 38.5425 35.8692 33.3116 30.8696 28.5432 26.3326 24.2377 22.2586 20.3954 18.648 17.0166 15.5011 14.1017 12.8183 11.6509 10.5998 9.66473 8.84591 8.14332 7.557 7.08699 6.73332 6.49603 6.37514 6.37069 6.48271 6.71124 7.0563 7.51793 8.09614 8.79098 9.60247 10.5306 11.5755 12.7371 14.0155 15.4106 16.9226 18.5514 20.2971 22.1596 24.1391 26.2354 28.4488 30.7791 33.2264 35.7908 38.4722 41.2706 44.1862 47.2188 50.3686 53.6355 57.0196 60.5209 64.1393 67.875 71.728 75.6982 79.7856 83.9904 88.3125 92.7519 97.3086 101.983 106.774 111.683 116.709 121.853 127.114 132.493 137.989 143.602 149.333 155.182 161.148 167.232 173.433 179.751 186.188 192.742 199.413 206.202 213.109 220.133 
99.2215 94.6463 90.1852 85.8381 81.6052 77.4865 73.4822 69.5922 65.8167 62.1558 58.6094 55.1776 51.8606 48.6584 45.5709 42.5984 39.7409 36.9984 34.371 31.8587 29.4616 27.1797 25.0132 22.962 21.0263 19.206 17.5012 15.9119 14.4383 13.0803 11.838 10.7114 9.70064 8.80569 8.02662 7.36347 6.81626 6.38504 6.06985 5.87074 5.78774 5.82089 5.97022 6.23577 6.61757 7.11566 7.73008 8.46085 9.30801 10.2716 11.3516 12.5482 13.8612 15.2908 16.8369 18.4997 20.2791 22.1752 24.1879 26.3174 28.5636 30.9265 33.4063 36.0029 38.7163 41.5466 44.4938 47.5579 50.7389 54.0369 57.4519 60.9839 64.6329 68.399 72.2821 76.2823 80.3997 84.6341 88.9858 93.4545 98.0405 102.744 107.564 112.502 117.557 122.729 128.018 133.425 138.949 144.591 150.35 156.226 162.219 168.33 174.559 180.905 187.368 193.949 200.647 207.463 214.396 
101.405 96.7732 92.2549 87.85 83.5585 79.3807 75.3164 71.3659 67.5293 63.8066 60.1978 56.7031 53.3224 50.056 46.9039 43.8661 40.9427 38.1338 35.4395 32.8598 30.3948 28.0444 25.809 23.6884 21.6827 19.7921 18.0165 16.3559 14.8106 13.3805 12.0656 10.8661 9.78192 8.81317 7.95991 7.22217 6.59999 6.09342 5.70251 5.42732 5.26788 5.22423 5.29642 5.48449 5.78848 6.20843 6.74439 7.39638 8.16446 9.04864 10.049 11.1655 12.3983 13.7473 15.2126 16.7942 18.4922 20.3066 22.2374 24.2847 26.4485 28.7288 31.1256 33.639 36.269 39.0157 41.879 44.859 47.9557 51.1692 54.4994 57.9465 61.5103 65.191 68.9886 72.903 76.9344 81.0827 85.348 89.7303 94.2296 98.8459 103.579 108.43 113.397 118.482 123.684 129.003 134.439 139.992 145.662 151.45 157.355 163.377 169.517 175.774 182.148 188.639 195.248 201.974 208.818 
103.387 98.707 94.1393 89.6842 85.3418 81.1124 76.9958 72.9923 69.1019 65.3249 61.6612 58.1108 54.674 51.3507 48.1411 45.0452 42.0631 39.1951 36.4409 33.8009 31.275 28.8632 26.5658 24.3828 22.3142 20.3601 18.5206 16.7957 15.1855 13.69 12.3094 11.0437 9.89285 8.85704 7.9363 7.13066 6.44019 5.86494 5.40496 5.06031 4.83103 4.71719 4.71882 4.83597 5.0687 5.41705 5.88107 6.4608 7.15628 7.96756 8.89468 9.93768 11.0966 12.3715 13.7624 15.2693 16.8923 18.6315 20.4868 22.4583 24.546 26.75 29.0702 31.5068 34.0598 36.7292 39.515 42.4172 45.4359 48.5712 51.823 55.1915 58.6764 62.2781 65.9964 69.8314 73.7831 77.8516 82.0369 86.3389 90.7578 95.2936 99.9462 104.716 109.602 114.605 119.726 124.963 130.317 135.789 141.377 147.083 152.905 158.845 164.902 171.076 177.367 183.776 190.301 196.944 203.704 
104.99 100.273 95.6682 91.175 86.7938 82.5247 78.3678 74.3233 70.3913 66.5718 62.8651 59.271 55.7898 52.4216 49.1664 46.0243 42.9955 40.0799 37.2778 34.5893 32.0143 29.5528 27.2053 24.9716 22.8518 20.8461 18.9544 17.1769 15.5136 13.9646 12.53 11.2098 10.0041 8.91293 7.93646 7.07466 6.32765 5.69545 5.17814 4.77578 4.48841 4.31611 4.25893 4.31692 4.49014 4.77864 5.18248 5.7017 6.33636 7.0865 7.95217 8.93342 10.0303 11.2429 12.5711 14.0152 15.575 17.2507 19.0423 20.9498 22.9733 25.1128 27.3684 29.74 32.2278 34.8317 37.5519 40.3883 43.3409 46.4099 49.5952 52.8969 56.315 59.8495 63.5005 67.268 71.1521 75.1527 79.2699 83.5037 87.8542 92.3214 96.9052 101.606 106.423 111.357 116.408 121.576 126.861 132.262 137.781 143.416 149.169 155.038 161.024 167.128 173.348 179.686 186.14 192.712 199.401 
106.032 101.294 96.6681 92.1528 87.7489 83.4564 79.2753 75.2059 71.2483 67.4026 63.6689 60.0474 56.5381 53.1412 49.8568 46.6848 43.6255 40.6789 37.8453 35.1245 32.5169 30.0222 27.641 25.3731 23.2187 21.1778 19.2505 17.4369 15.7371 14.1511 12.6791 11.3211 10.0772 8.94745 7.93198 7.0308 6.24401 5.57164 5.01382 4.5706 4.24202 4.02816 3.92909 3.94487 4.07555 4.3212 4.68188 5.15764 5.74854 6.45464 7.27598 8.21263 9.26464 10.4321 11.7149 13.1133 14.6273 16.2568 18.002 19.8629 21.8396 23.932 26.1403 28.4644 30.9045 33.4605 36.1326 38.9206 41.8248 44.845 47.9815 51.2341 54.603 58.0881 61.6895 65.4073 69.2414 73.192 77.259 81.4424 85.7424 90.1589 94.6919 99.3416 104.108 108.991 113.99 119.107 124.34 129.69 135.156 140.74 146.44 152.257 158.191 164.242 170.41 176.695 183.097 189.616 196.252 
106.367 101.628 96.9994 92.4811 88.0735 83.7766 79.5905 75.5155 71.5516 67.6989 63.9578 60.3282 56.8104 53.4042 50.1102 46.9279 43.8579 40.9003 38.055 35.322 32.7017 30.194 27.7991 25.5172 23.3483 21.2926 19.35 17.5207 15.8048 14.2024 12.7135 11.3383 10.0769 8.92926 7.89551 6.97577 6.17008 5.47853 4.90119 4.43813 4.08941 3.85514 3.73538 3.73018 3.83962 4.06377 4.40268 4.85643 5.42508 6.10868 6.9073 7.821 8.84983 9.99386 11.2531 12.6277 14.1176 15.723 17.4438 19.2801 21.232 23.2995 25.4826 27.7815 30.1962 32.7266 35.3729 38.135 41.0131 44.0072 47.1172 50.3434 53.6856 57.144 60.7186 64.4094 68.2164 72.1397 76.1794 80.3354 84.6078 88.9966 93.5019 98.1237 102.862 107.717 112.688 117.777 122.981 128.303 133.741 139.296 144.967 150.756 156.661 162.683 168.822 175.078 181.451 187.941 194.548 
105.93 101.209 96.5983 92.0974 87.7064 83.4252 79.2545 75.1942 71.2445 67.4057 63.6778 60.061 56.5552 53.1608 49.8782 46.707 43.6476 40.7002 37.8648 35.1412 32.5299 30.0307 27.6442 25.3702 23.2089 21.1604 19.2247 17.4021 15.6925 14.0961 12.613 11.2433 9.98706 8.84438 7.81532 6.90003 6.09852 5.41092 4.83732 4.37779 4.03238 3.8012 3.68431 3.6818 3.79374 4.02019 4.36124 4.81695 5.38739 6.07261 6.8727 7.78771 8.81771 9.96276 11.2229 12.5982 14.0888 15.6947 17.4158 19.2524 21.2044 23.2719 25.455 27.7537 30.1681 32.6981 35.3439 38.1056 40.983 43.9764 47.0857 50.3109 53.6522 57.1096 60.6831 64.3728 68.1786 72.1006 76.139 80.2936 84.5646 88.952 93.4558 98.0761 102.813 107.666 112.636 117.722 122.925 128.245 133.681 139.235 144.904 150.691 156.594 162.614 168.752 175.006 181.377 187.865 194.469 
104.769 100.085 95.5098 91.0439 86.6879 82.4416 78.3052 74.2788 70.3628 66.557 62.8618 59.2773 55.8038 52.4413 49.1899 46.05 43.0213 40.105 37.2998 34.6062 32.0248 29.5551 27.1979 24.9531 22.8207 20.801 18.8939 17.0997 15.4182 13.8498 12.3945 11.0524 9.82364 8.70828 7.70639 6.81814 6.0436 5.38276 4.83584 4.40285 4.08391 3.87908 3.78843 3.81207 3.95006 4.20249 4.56943 5.05095 5.64713 6.35803 7.18372 8.12429 9.17978 10.3503 11.6358 13.0365 14.5524 16.1834 17.9299 19.7916 21.7689 23.8615 26.0697 28.3935 30.833 33.3881 36.059 38.8457 41.7482 44.7666 47.901 51.1513 54.5176 58.0001 61.5986 65.3133 69.1443 73.0914 77.1548 81.3347 85.6307 90.0434 94.5723 99.2178 103.98 108.858 113.853 118.965 124.194 129.539 135 140.579 146.274 152.086 158.015 164.061 170.224 176.504 182.901 189.414 196.045 
103.044 98.4106 93.8861 89.4704 85.1643 80.9678 76.8808 72.9036 69.0366 65.2799 61.6334 58.0972 54.672 51.3575 48.154 45.062 42.0814 39.2121 36.4545 33.8084 31.2742 28.8516 26.5415 24.3438 22.2582 20.2852 18.425 16.6775 15.0427 13.5209 12.1123 10.8168 9.6347 8.56584 7.61051 6.76875 6.04069 5.42641 4.92598 4.53952 4.26709 4.10878 4.06469 4.1349 4.31949 4.61854 5.03214 5.56034 6.20324 6.9609 7.83338 8.82079 9.92318 11.1406 12.4732 13.9209 15.4839 17.1622 18.9558 20.8649 22.8894 25.0296 27.2853 29.6566 32.1437 34.7466 37.4652 40.2998 43.2504 46.3168 49.4991 52.7977 56.2123 59.7431 63.3901 67.1535 71.033 75.0288 79.1411 83.3698 87.7149 92.1767 96.7548 101.45 106.261 111.189 116.234 121.395 126.673 132.068 137.58 143.209 148.954 154.816 160.796 166.892 173.105 179.436 185.883 192.448 199.129 
101.003 96.4284 91.9628 87.606 83.3588 79.2211 75.1929 71.2746 67.4665 63.7681 60.1805 56.7035 53.3369 50.0814 46.9368 43.9033 40.9813 38.1711 35.4723 32.8852 30.41 28.0467 25.7959 23.6574 21.6311 19.7178 17.9169 16.229 14.654 13.192 11.8433 10.6078 9.48569 8.4771 7.58209 6.80084 6.13335 5.57977 5.14016 4.81467 4.60334 4.50627 4.52354 4.65524 4.90146 5.2623 5.7378 6.32808 7.0332 7.85321 8.7882 9.83825 11.0034 12.2839 13.6795 15.1905 16.8169 18.5588 20.4162 22.3891 24.4778 26.6821 29.0021 31.4381 33.9899 36.6576 39.4413 42.341 45.3568 48.4888 51.737 55.1013 58.5819 62.1788 65.8922 69.7219 73.6681 77.7307 81.91 86.2058 90.6182 95.1475 99.7932 104.556 109.435 114.431 119.544 124.774 130.121 135.584 141.165 146.863 152.678 158.609 164.658 170.824 177.107 183.508 190.025 196.66 203.412 
98.9249 94.4118 90.0066 85.711 81.5251 77.4485 73.4818 69.6248 65.8779 62.2421 58.7164 55.3015 51.9974 48.8046 45.7224 42.7519 39.8932 37.1464 34.5111 31.9877 29.5762 27.2772 25.0907 23.0166 21.0553 19.2068 17.4714 15.849 14.3397 12.9436 11.661 10.4918 9.43638 8.49463 7.66677 6.95278 6.35281 5.86704 5.49548 5.23827 5.09543 5.06711 5.15338 5.35433 5.67004 6.10059 6.64607 7.30657 8.08214 8.97286 9.97881 11.1 12.3367 13.6888 15.1564 16.7396 18.4384 20.2528 22.1832 24.2292 26.3911 28.6691 31.063 33.5731 36.1992 38.9414 41.7999 44.7747 47.8658 51.0732 54.3971 57.8373 61.3942 65.0675 68.8575 72.7641 76.7872 80.9272 85.1839 89.5575 94.0479 98.6556 103.379 108.221 113.179 118.254 123.446 128.756 134.182 139.726 145.386 151.164 157.06 163.072 169.202 175.449 181.814 188.295 194.895 201.611 208.446 
97.077 92.6192 88.2702 84.031 79.9008 75.8813 71.9708 68.171 64.4824 60.9041 57.4368 54.08 50.835 47.7009 44.6787 41.7682 38.9695 36.2828 33.7083 31.2462 28.8959 26.6587 24.5344 22.5228 20.6242 18.8389 17.1667 15.608 14.1627 12.8312 11.6133 10.5093 9.5192 8.64323 7.8815 7.23391 6.70071 6.282 5.97783 5.78833 5.71361 5.75368 5.90865 6.17865 6.56373 7.06399 7.67947 8.41027 9.25652 10.2182 11.2955 12.4883 13.7969 15.2211 16.7613 18.4173 20.1892 22.0772 24.0812 26.2014 28.4377 30.7903 33.2592 35.8444 38.5461 41.3642 44.2988 47.3499 50.5178 53.8021 57.2032 60.721 64.3556 68.1071 71.9752 75.9604 80.0625 84.2817 88.6176 93.0709 97.6412 102.329 107.133 112.055 117.094 122.251 127.524 132.915 138.423 144.049 149.792 155.653 161.631 167.727 173.94 180.271 186.719 193.285 199.968 206.769 213.688 
95.6772 91.262 86.957 82.7624 78.6776 74.703 70.8391 67.0856 63.444 59.9124 56.493 53.1844 49.9879 46.9031 43.9303 41.0692 38.3208 35.6849 33.1611 30.7502 28.4521 26.2673 24.1953 22.237 20.392 18.6605 17.0427 15.5388 14.1488 12.8727 11.7107 10.663 9.72965 8.91087 8.2066 7.61702 7.14213 6.78214 6.5371 6.40706 6.39218 6.49249 6.7081 7.03909 7.48554 8.04752 8.72513 9.51841 10.4275 11.4524 12.5932 13.8499 15.2227 16.7116 18.3167 20.038 21.8756 23.8295 25.8998 28.0866 30.3898 32.8097 35.3462 37.9993 40.7692 43.6559 46.6594 49.7798 53.017 56.3712 59.8426 63.4307 67.1361 70.9584 74.898 78.9546 83.1286 87.4199 91.8284 96.3542 100.997 105.758 110.636 115.632 120.745 125.976 131.324 136.79 142.373 148.074 153.893 159.829 165.883 172.055 178.345 184.752 191.277 197.921 204.682 211.561 218.557 
94.8724 90.4857 86.2081 82.042 77.9861 74.0414 70.207 66.4836 62.8721 59.3711 55.9832 52.7073 49.543 46.4905 43.5512 40.724 38.0097 35.4086 32.9205 30.5455 28.2835 26.1353 24.1007 22.1798 20.3728 18.6798 17.1007 15.6362 14.2858 13.0501 11.9288 10.9222 10.0303 9.25335 8.59134 8.04445 7.61269 7.29625 7.0951 7.00943 7.03928 7.18474 7.44586 7.82275 8.31548 8.92413 9.64879 10.4895 11.4463 12.5193 13.7086 15.0143 16.4363 17.9748 19.6298 21.4013 23.2895 25.2945 27.4161 29.6544 32.0095 34.4816 37.0707 39.7768 42.5999 45.5401 48.5975 51.772 55.0636 58.4728 61.999 65.6424 69.4033 73.2816 77.2772 81.3904 85.6212 89.9693 94.435 99.0184 103.72 108.538 113.475 118.529 123.7 128.99 134.398 139.923 145.567 151.327 157.206 163.203 169.318 175.551 181.902 188.371 194.957 201.662 208.485 215.426 222.486 
94.7502 90.3697 86.1006 81.9428 77.8953 73.959 70.1337 66.4209 62.8201 59.3305 55.9534 52.6887 49.5376 46.4983 43.572 40.7586 38.0587 35.4724 32.9992 30.6398 28.3939 26.2626 24.2448 22.3412 20.5519 18.8769 17.3167 15.8709 14.54 13.324 12.223 11.237 10.3662 9.61073 8.97059 8.44592 8.0368 7.74333 7.5655 7.50357 7.55752 7.72746 8.01343 8.41552 8.9338 9.56838 10.3193 11.1866 12.1704 13.2707 14.4876 15.8211 17.2715 18.8385 20.5224 22.3231 24.2408 26.2755 28.4272 30.6961 33.082 35.585 38.2054 40.9431 43.798 46.7704 49.8601 53.0672 56.3917 59.8339 63.3937 67.071 70.8654 74.7779 78.808 82.956 87.2214 91.6049 96.106 100.725 105.462 110.317 115.289 120.38 125.588 130.915 136.359 141.922 147.603 153.402 159.319 165.353 171.507 177.778 184.168 190.675 197.301 204.045 210.908 217.889 224.987 
95.3348 90.9407 86.6568 82.4858 78.4248 74.476 70.6392 66.914 63.3014 59.8002 56.4128 53.1386 49.9765 46.9285 43.9925 41.171 38.4623 35.8681 33.3872 31.0204 28.7683 26.6304 24.6059 22.697 20.9025 19.2228 17.6577 16.2075 14.8729 13.6533 12.549 11.5602 10.6868 9.92908 9.28718 8.76083 8.35043 8.05598 7.87756 7.81529 7.8692 8.0394 8.32592 8.72887 9.2483 9.88429 10.6369 11.5062 12.4922 13.5951 14.8148 16.1514 17.605 19.1756 20.8632 22.668 24.5902 26.6295 28.786 31.0598 33.451 35.9596 38.5856 41.3289 44.19 47.1687 50.265 53.4789 56.8103 60.2596 63.8269 67.5117 71.3141 75.2344 79.2725 83.4289 87.7029 92.0949 96.6049 101.233 105.979 110.843 115.825 120.925 126.144 131.48 136.935 142.508 148.199 154.008 159.936 165.982 172.145 178.428 184.829 191.348 197.985 204.741 211.615 218.608 225.719 
96.6132 92.1839 87.8651 83.659 79.5621 75.5795 71.708 67.9487 64.3024 60.7688 57.3477 54.0406 50.8464 47.766 44.7992 41.945 39.206 36.58 34.0684 31.6716 29.3887 27.2211 25.1678 23.2292 21.4049 19.6964 18.1028 16.6245 15.261 14.0136 12.8818 11.8653 10.9647 10.18 9.51115 8.95842 8.52163 8.2011 7.99667 7.90868 7.93703 8.08186 8.34326 8.72127 9.21596 9.82741 10.5556 11.4007 12.3628 13.4418 14.6378 15.9509 17.3811 18.9285 20.5932 22.3752 24.2746 26.2912 28.4253 30.677 33.046 35.5327 38.1369 40.8587 43.698 46.6551 49.7301 52.9227 56.233 59.6613 63.2076 66.8719 70.6538 74.5535 78.5713 82.7071 86.9612 91.3334 95.8233 100.431 105.158 110.002 114.964 120.045 125.244 130.561 135.996 141.55 147.222 153.012 158.921 164.948 171.093 177.357 183.739 190.239 196.857 203.594 210.45 217.424 224.517 
98.5443 94.06 89.6855 85.425 81.275 77.2357 73.3106 69.4977 65.7976 62.2109 58.7349 55.3741 52.1272 48.9928 45.9726 43.0661 40.274 37.5948 35.0318 32.5819 30.2473 28.0271 25.9221 23.9307 22.0551 20.2947 18.6497 17.1191 15.705 14.4064 13.2233 12.1562 11.2045 10.3687 9.64906 9.04552 8.55798 8.18687 7.93204 7.79359 7.77163 7.86621 8.07742 8.40532 8.84997 9.41145 10.0898 10.8851 11.7973 12.8266 13.973 15.2365 16.6172 18.1151 19.7303 21.4628 23.3128 25.2802 27.365 29.5673 31.8873 34.3247 36.8799 39.5527 42.3429 45.2512 48.277 51.4205 54.682 58.0616 61.5588 65.1741 68.9067 72.7581 76.7272 80.8143 85.0196 89.3426 93.7842 98.3435 103.021 107.817 112.73 117.762 122.912 128.181 133.567 139.073 144.696 150.437 156.297 162.275 168.372 174.587 180.92 187.371 193.941 200.629 207.436 214.361 221.405 
101.072 96.5162 92.0711 87.739 83.5171 79.4084 75.4113 71.5283 67.7558 64.0976 60.5513 57.119 53.8002 50.5954 47.5024 44.5241 41.6603 38.9105 36.2746 33.753 31.3465 29.055 26.8774 24.8149 22.868 21.0349 19.3173 17.7148 16.2288 14.8577 13.6022 12.4622 11.438 10.5301 9.73757 9.06141 8.50151 8.05755 7.72976 7.51852 7.42359 7.44509 7.58327 7.83799 8.20941 8.69758 9.30259 10.0244 10.8632 11.8189 12.8917 14.0815 15.3885 16.8125 18.3538 20.0125 21.7883 23.6816 25.6924 27.8205 30.0661 32.4293 34.9099 37.5082 40.2239 43.0575 46.0086 49.0775 52.2641 55.5683 58.9908 62.5307 66.1885 69.9643 73.8581 77.8698 81.9996 86.247 90.6128 95.0965 99.6982 104.418 109.255 114.211 119.285 124.478 129.788 135.217 140.763 146.428 152.212 158.113 164.133 170.271 176.527 182.902 189.394 196.005 202.734 209.583 216.549 
104.147 99.5067 94.9766 90.561 86.2559 82.0649 77.9806 74.0124 70.156 66.4121 62.7791 59.2598 55.8555 52.5618 49.3831 46.3185 43.3664 40.5298 37.8056 35.1965 32.7011 30.3215 28.0552 25.9034 23.8669 21.9447 20.1381 18.4459 16.869 15.4074 14.0613 12.8312 11.716 10.7165 9.8328 9.06483 8.41284 7.87708 7.45724 7.15333 6.96562 6.89424 6.93916 7.10056 7.37843 7.77284 8.28386 8.91154 9.65599 10.5171 11.4952 12.5899 13.8017 15.1305 16.5762 18.1391 19.8192 21.6164 23.5309 25.5625 27.7115 29.9776 32.3615 34.8623 37.4809 40.2167 43.0702 46.0413 49.1296 52.3359 55.6596 59.1011 62.6602 66.3369 70.1313 74.0439 78.0741 82.2223 86.4883 90.872 95.3737 99.9928 104.73 109.585 114.559 119.65 124.859 130.187 135.632 141.196 146.877 152.676 158.594 164.63 170.784 177.057 183.447 189.955 196.581 203.326 210.19 
107.723 102.993 98.3693 93.8603 89.4601 85.1731 80.9962 76.9314 72.9786 69.1368 65.4082 61.7903 58.2865 54.8954 51.6179 48.4532 45.4019 42.4643 39.6403 36.9291 34.3327 31.85 29.4804 27.2266 25.0859 23.0605 21.1487 19.3521 17.6699 16.1035 14.6515 13.3147 12.093 10.9863 9.99497 9.11946 8.35932 7.71492 7.18586 6.77289 6.47561 6.29429 6.22892 6.27959 6.44643 6.72946 7.12879 7.6444 8.27644 9.0249 9.88984 10.8714 11.9694 13.1842 14.5158 15.964 17.5292 19.2111 21.01 22.926 24.9589 27.1088 29.3757 31.7598 34.261 36.8796 39.6152 42.468 45.4382 48.5257 51.7306 55.0528 58.4925 62.0499 65.7245 69.5166 73.4266 77.4542 81.5994 85.8618 90.242 94.7394 99.3549 104.088 108.939 113.908 118.994 124.199 129.521 134.961 140.519 146.194 151.988 157.9 163.929 170.076 176.341 182.724 189.226 195.845 202.582 
111.771 106.942 102.219 97.6073 93.1052 88.7154 84.437 80.2695 76.2112 72.2659 68.4301 64.7072 61.0963 57.5974 54.2106 50.9374 47.7752 44.7261 41.7907 38.9683 36.2596 33.6627 31.18 28.8108 26.5562 24.414 22.3864 20.4732 18.674 16.9889 15.418 13.9622 12.6208 11.3945 10.2824 9.28521 8.40319 7.6364 6.98509 6.44877 6.02755 5.72174 5.53154 5.4569 5.4979 5.65467 5.92725 6.31569 6.82005 7.44046 8.17683 9.0293 9.99803 11.0831 12.2845 13.602 15.0359 16.5864 18.2533 20.0368 21.937 23.9538 26.0873 28.3374 30.7045 33.1883 35.789 38.5065 41.3409 44.2925 47.3609 50.5465 53.8492 57.269 60.806 64.4599 68.2314 72.1198 76.1258 80.2491 84.4893 88.8473 93.3224 97.9147 102.625 107.452 112.397 117.46 122.64 127.937 133.353 138.885 144.536 150.304 156.189 162.193 168.314 174.552 180.908 187.383 193.974 
116.254 111.32 106.49 101.776 97.1652 92.6724 88.2829 84.0053 79.8366 75.7812 71.8347 67.9994 64.2731 60.6586 57.1558 53.7665 50.4875 47.3193 44.2648 41.3227 38.493 35.7751 33.1697 30.6777 28.298 26.0325 23.8791 21.8393 19.9128 18.0997 16.4009 14.8162 13.345 11.9873 10.7443 9.61521 8.60089 7.70072 6.91483 6.24436 5.68806 5.24664 4.91993 4.70838 4.61178 4.63023 4.76396 5.01298 5.37736 5.85718 6.45246 7.16339 7.98995 8.93213 9.9901 11.164 12.4537 13.8594 15.3811 17.0188 18.7726 20.6429 22.6291 24.7315 26.9504 29.2856 31.7371 34.3054 36.9895 39.7908 42.7082 45.7426 48.8936 52.1613 55.5457 59.0469 62.665 66.3999 70.2517 74.2205 78.3061 82.5089 86.8283 91.2648 95.8184 100.489 105.277 110.182 115.205 120.344 125.601 130.975 136.466 142.074 147.801 153.644 159.605 165.683 171.878 178.191 184.621 
121.08 116.037 111.107 106.286 101.569 96.9623 92.4635 88.0774 83.7967 79.6272 75.5653 71.6145 67.7726 64.0404 60.4188 56.9091 53.5111 50.2209 47.0424 43.9758 41.0192 38.1743 35.4428 32.8217 30.3141 27.9169 25.6332 23.461 21.402 19.4561 17.6219 15.9011 14.2932 12.799 11.4172 10.1491 8.99567 7.95513 7.02838 6.21537 5.5166 4.93193 4.46087 4.10427 3.86217 3.73433 3.7211 3.82242 4.03846 4.36927 4.81492 5.37548 6.05107 6.84175 7.74753 8.76855 9.90497 11.1566 12.5238 14.0062 15.6043 17.3181 19.1474 21.0923 23.1534 25.3297 27.6224 30.0306 32.5553 35.1955 37.9522 40.8251 43.8143 46.9194 50.1409 53.4787 56.9325 60.503 64.1902 67.9936 71.9136 75.9502 80.1035 84.3731 88.7598 93.2625 97.8822 102.619 107.473 112.442 117.529 122.733 128.055 133.492 139.047 144.718 150.507 156.413 162.436 168.576 174.833 
126.1 120.959 115.925 110.999 106.18 101.469 96.8653 92.3658 87.9726 83.6914 79.5182 75.4517 71.4972 67.6493 63.9094 60.2772 56.7577 53.3461 50.0467 46.8558 43.7739 40.8036 37.9439 35.1952 32.5581 30.0298 27.6139 25.3101 23.1171 21.0361 19.0669 17.21 15.4644 13.8316 12.3102 10.9025 9.60699 8.42503 7.35498 6.39837 5.55498 4.82432 4.20758 3.70392 3.31384 3.03733 2.87466 2.8258 2.89085 3.0699 3.36305 3.7704 4.29211 4.92807 5.67877 6.54382 7.52352 8.61765 9.82679 11.1508 12.5893 14.1432 15.812 17.596 19.4951 21.509 23.6387 25.8839 28.2443 30.7201 33.3116 36.0184 38.8416 41.7801 44.8344 48.0044 51.2904 54.692 58.2099 61.8435 65.5933 69.4593 73.4415 77.5394 81.7537 86.0845 90.5315 95.0946 99.7741 104.57 109.482 114.512 119.657 124.918 130.297 135.792 141.404 147.132 152.978 158.94 165.019 
131.034 125.812 120.682 115.659 110.75 105.934 101.23 96.6332 92.1444 87.7553 83.4788 79.3062 75.2421 71.2848 67.4374 63.6971 60.0646 56.538 53.1234 49.8168 46.6155 43.5283 40.5495 37.6786 34.9185 32.2656 29.7262 27.2961 24.9761 22.7676 20.6699 18.6811 16.8051 15.04 13.3863 11.8441 10.4137 9.09484 7.88835 6.79409 5.81155 4.94152 4.18367 3.5388 3.00628 2.58679 2.28011 2.08638 2.00586 2.03857 2.18459 2.44407 2.81706 3.30379 3.90417 4.61841 5.44649 6.38861 7.44468 8.61495 9.89968 11.2984 12.8115 14.4391 16.1813 18.0377 20.0092 22.0959 24.2967 26.6126 29.0436 31.5896 34.2513 37.0271 39.9187 42.9256 46.0476 49.285 52.6381 56.106 59.69 63.3898 67.205 71.1366 75.183 79.3454 83.6239 88.0175 92.5274 97.1537 101.896 106.754 111.728 116.818 122.025 127.347 132.786 138.342 144.014 149.802 155.707 
135.494 130.199 124.993 119.895 114.897 110.013 105.226 100.536 95.9658 91.4944 87.1252 82.8639 78.7104 74.6592 70.7182 66.8828 63.1537 59.531 56.0147 52.6075 49.3062 46.1128 43.0302 40.0539 37.1887 34.4285 31.7796 29.2392 26.8094 24.4874 22.2756 20.1743 18.1819 16.3028 14.5316 12.8714 11.3221 9.88279 8.55525 7.33837 6.23336 5.23945 4.35707 3.5869 2.92823 2.38126 1.94646 1.62409 1.41403 1.31632 1.33118 1.45871 1.699 2.05218 2.51845 3.09764 3.79009 4.59574 5.51514 6.54752 7.6939 8.95326 10.3267 11.8142 13.4156 15.1309 16.9607 18.9043 20.962 23.1343 25.4207 27.8216 30.3372 32.9673 35.7122 38.572 41.5467 44.6349 47.8392 51.1584 54.593 58.1426 61.8071 65.587 69.4818 73.4923 77.6182 81.8601 86.2166 90.6888 95.277 99.9804 104.8 109.734 114.785 119.952 125.235 130.634 136.148 141.779 147.525 
138.974 133.622 128.369 123.218 118.174 113.22 108.375 103.638 99.0002 94.4566 90.0275 85.7012 81.4823 77.3644 73.3552 69.4477 65.6419 61.9509 58.3596 54.8793 51.4995 48.2319 45.0681 42.0148 39.069 36.228 33.4968 30.8733 28.3573 25.9505 23.6516 21.4621 19.3823 17.4139 15.5518 13.8003 12.1587 10.6274 9.20554 7.89426 6.69336 5.60299 4.62378 3.75569 2.99804 2.35201 1.81717 1.39389 1.08191 0.881775 0.793549 0.817277 0.953144 1.20116 1.56158 2.03436 2.61988 3.31792 4.12861 5.0523 6.08872 7.23893 8.5016 9.87813 11.3666 12.9696 14.687 16.5174 18.4605 20.5182 22.6901 24.9755 27.3747 29.8881 32.5163 35.2583 38.115 41.0858 44.1709 47.3701 50.6846 54.1138 57.6577 61.3161 65.0904 68.9794 72.9831 77.1019 81.3358 85.6851 90.1496 94.7292 99.4236 104.234 109.16 114.201 119.359 124.631 130.02 135.523 141.144 
140.939 135.557 130.278 125.105 120.03 115.057 110.183 105.414 100.746 96.1761 91.7164 87.3523 83.1017 78.9467 74.9002 70.955 67.115 63.384 59.7505 56.2278 52.8111 49.5012 46.2962 43.196 40.2013 37.3155 34.5361 31.8662 29.3011 26.8459 24.4978 22.2592 20.128 18.1037 16.1902 14.3847 12.6886 11.1032 9.62559 8.25768 6.9995 5.85237 4.81496 3.88737 3.07083 2.36453 1.76913 1.28441 0.910967 0.648379 0.497277 0.457547 0.529421 0.713022 1.00831 1.4159 1.93547 2.567 3.3109 4.1671 5.13573 6.21698 7.41096 8.71797 10.1378 11.6702 13.3162 15.0751 16.948 18.9337 21.0335 23.2461 25.5735 28.0136 30.5676 33.2356 36.018 38.9138 41.9244 45.0492 48.2875 51.6412 55.1101 58.691 62.3882 66.1995 70.126 74.1674 78.3238 82.5948 86.9807 91.4818 96.0974 100.829 105.675 110.637 115.714 120.907 126.215 131.638 137.178 
140.908 135.541 130.275 125.113 120.044 115.076 110.217 105.442 100.785 96.2244 91.7685 87.4149 83.164 79.013 74.9684 71.0277 67.1908 63.4584 59.8281 56.3028 52.8869 49.5709 46.3642 43.2625 40.2676 37.3769 34.5951 31.9192 29.3496 26.8884 24.535 22.2887 20.1501 18.1217 16.2004 14.3881 12.6836 11.0881 9.60135 8.22509 6.95713 5.79899 4.75106 3.81346 2.98557 2.26806 1.66068 1.16413 0.77813 0.502886 0.338823 0.285863 0.344184 0.513875 0.79496 1.18791 1.69273 2.30929 3.03799 3.87862 4.83143 5.89714 7.07436 8.36504 9.76796 11.2838 12.913 14.6549 16.509 18.4768 20.5583 22.7542 25.062 27.4843 30.02 32.6692 35.4322 38.3091 41.3005 44.4054 47.6247 50.9582 54.4059 57.9689 61.6453 65.4362 69.3426 73.363 77.4983 81.748 86.113 90.5928 95.1875 99.8979 104.724 109.663 114.719 119.89 125.176 130.578 136.095 
138.712 133.38 128.161 123.036 118.01 113.085 108.274 103.556 98.9314 94.4156 90.0007 85.6937 81.4858 77.3744 73.3736 69.4745 65.6788 61.989 58.4028 54.9192 51.5457 48.2739 45.1081 42.0484 39.0931 36.2477 33.5064 30.8739 28.3475 25.927 23.6172 21.4125 19.3161 17.3298 15.4507 13.6796 12.016 10.4632 9.01943 7.68358 6.4582 5.34276 4.33602 3.44018 2.65421 1.97844 1.41294 0.957943 0.613819 0.38051 0.258242 0.247171 0.34735 0.558991 0.88218 1.3171 1.86392 2.52233 3.29297 4.17578 5.17029 6.27787 7.49767 8.83051 10.2758 11.834 13.5048 15.2896 17.1872 19.1969 21.3211 23.5582 25.9089 28.3739 30.9525 33.6449 36.451 39.3706 42.4039 45.5523 48.8147 52.1907 55.6817 59.2866 63.008 66.8424 70.7908 74.8552 79.0342 83.3278 87.7362 92.2603 96.8986 101.653 106.522 111.507 116.606 121.821 127.152 132.598 138.159 
134.454 129.202 124.059 119.003 114.064 109.216 104.468 99.8274 95.2905 90.849 86.5144 82.2801 78.1523 74.1253 70.2019 66.3881 62.6759 59.0668 55.5611 52.164 48.8702 45.6875 42.6059 39.6312 36.763 34.0033 31.349 28.8038 26.3645 24.0324 21.8096 19.6937 17.6888 15.7908 14.0008 12.3214 10.7493 9.28674 7.93443 6.6912 5.55761 4.53515 3.62232 2.81978 2.12771 1.54614 1.07562 0.715691 0.46698 0.329432 0.30326 0.38862 0.58566 0.894469 1.31499 1.84763 2.49259 3.24961 4.11913 5.1011 6.19576 7.40288 8.72305 10.1566 11.7026 13.3619 15.1345 17.0211 19.0198 21.1335 23.3597 25.6999 28.1545 30.7221 33.4048 36.2007 39.1119 42.1365 45.2765 48.5293 51.897 55.3792 58.9761 62.6887 66.5156 70.4575 74.5143 78.6855 82.9733 87.3744 91.8915 96.5242 101.271 106.135 111.113 116.208 121.418 126.743 132.184 137.741 143.414 
128.588 123.433 118.393 113.448 108.601 103.86 99.2179 94.6845 90.254 85.9209 81.6967 77.5722 73.5553 69.6456 65.8385 62.1366 58.5371 55.0487 51.6609 48.3829 45.2091 42.1442 39.1858 36.3349 33.5917 30.9564 28.4276 26.0085 23.6959 21.494 19.4003 17.4135 15.5376 13.7713 12.1134 10.5671 9.12917 7.80215 6.58549 5.47796 4.48194 3.59675 2.82294 2.15942 1.60723 1.1667 0.83745 0.619862 0.513992 0.520055 0.638156 0.868448 1.21111 1.6661 2.23364 2.91387 3.70683 4.61285 5.63181 6.76392 8.0093 9.36776 10.8399 12.4256 14.1247 15.9381 17.8653 19.9057 22.061 24.3299 26.7128 29.2106 31.8224 34.5488 37.3891 40.3447 43.415 46.6004 49.8996 53.3139 56.8444 60.4893 64.2494 68.1253 72.1158 76.2226 80.4441 84.7805 89.2328 93.8005 98.4846 103.283 108.199 113.231 118.377 123.64 129.019 134.514 140.124 145.852 151.694 
121.778 116.753 111.825 106.996 102.28 97.6653 93.1523 88.7422 84.4388 80.2408 76.1481 72.1582 68.2741 64.5006 60.8319 57.2688 53.8107 50.4621 47.2215 44.0915 41.0652 38.1492 35.3394 32.641 30.0479 27.5674 25.1956 22.9312 20.7792 18.7332 16.8001 14.9763 13.2641 11.6619 10.1697 8.78874 7.51913 6.36022 5.3133 4.37734 3.55324 2.84062 2.24041 1.75216 1.37604 1.11243 0.961144 0.922638 0.996854 1.18394 1.48385 1.89703 2.42365 3.06329 3.81653 4.68348 5.66379 6.75788 7.96651 9.28849 10.7248 12.2752 13.94 15.7197 17.613 19.6212 21.7439 23.9819 26.3342 28.801 31.3831 34.0804 36.8923 39.8197 42.8626 46.0205 49.2939 52.6834 56.1875 59.8081 63.5434 67.3952 71.3622 75.4464 79.6451 83.9607 88.3919 92.9391 97.6022 102.382 107.278 112.291 117.42 122.664 128.026 133.505 139.1 144.81 150.638 156.582 162.643 
114.736 109.84 105.042 100.35 95.7632 91.2839 86.9072 82.6459 78.4819 74.4284 70.4794 66.6444 62.9098 59.2888 55.7718 52.3682 49.0696 45.881 42.7987 39.8307 36.971 34.2213 31.5796 29.0494 26.6285 24.321 22.1223 20.0367 18.0621 16.1975 14.4436 12.8023 11.2726 9.85494 8.54963 7.35639 6.2758 5.30693 4.45151 3.70896 3.07908 2.56251 2.15881 1.86876 1.69212 1.62905 1.67972 1.84416 2.12256 2.51489 3.02153 3.64241 4.37771 5.22732 6.19149 7.27006 8.46366 9.77196 11.1952 12.7339 14.3871 16.1559 18.04 20.039 22.1546 24.3846 26.7305 29.1913 31.7685 34.4615 37.2704 40.1953 43.236 46.3925 49.6651 53.0535 56.559 60.1808 63.9179 67.7727 71.7429 75.83 80.0334 84.3546 88.7918 93.346 98.0168 102.804 107.708 112.729 117.868 123.123 128.495 133.984 139.59 145.314 151.155 157.113 163.188 169.38 175.69 
108.102 103.326 98.6654 94.1106 89.663 85.3278 81.0922 76.9707 72.9544 69.0572 65.2563 61.5685 57.9945 54.5286 51.1748 47.9279 44.7934 41.7722 38.859 36.0581 33.3713 30.7939 28.3262 25.9723 23.7313 21.6035 19.5873 17.684 15.8923 14.2147 12.6497 11.1995 9.86074 8.63549 7.52481 6.52771 5.64522 4.87575 4.22058 3.67985 3.25338 2.94137 2.74432 2.66163 2.69384 2.84099 3.10299 3.48023 3.97253 4.58014 5.30343 6.14198 7.0959 8.16564 9.35114 10.652 12.0691 13.602 15.2513 17.0167 18.8977 20.8958 23.0097 25.24 27.5868 30.0505 32.6306 35.3266 38.1398 41.0703 44.1167 47.28 50.5602 53.9578 57.4723 61.1035 64.8522 68.7175 72.7004 76.8011 81.0181 85.3532 89.8045 94.3738 99.0612 103.866 108.788 113.827 118.984 124.259 129.651 135.161 140.79 146.535 152.398 158.38 164.479 170.696 177.03 183.483 190.054 
102.319 97.6689 93.1405 88.7164 84.4051 80.1908 76.1003 72.1214 68.2502 64.4879 60.843 57.303 53.8768 50.5653 47.3637 44.2754 41.2999 38.4369 35.6896 33.0528 30.5298 28.1223 25.8262 23.6437 21.5758 19.6224 17.7838 16.0587 14.4484 12.9537 11.5723 10.3064 9.15524 8.11743 7.19691 6.39103 5.70064 5.12616 4.66701 4.32366 4.096 3.98423 3.98845 4.10868 4.34512 4.69756 5.16651 5.75158 6.45337 7.27156 8.20633 9.25775 10.4264 11.7114 13.113 14.6323 16.2677 18.0208 19.8913 21.8782 23.9825 26.2051 28.5443 31.0005 33.5749 36.2655 39.0742 42.0008 45.045 48.2062 51.4863 54.8836 58.3986 62.0319 65.7818 69.6514 73.6364 77.742 81.9645 86.3051 90.7629 95.3398 100.035 104.848 109.78 114.829 119.997 125.283 130.687 136.21 141.85 147.61 153.488 159.485 165.598 171.832 178.183 184.653 191.242 197.948 204.774 
97.6479 93.1125 88.6949 84.3831 80.188 76.111 72.1449 68.2825 64.5388 60.9174 57.4021 53.998 50.7088 47.5333 44.473 41.5274 38.7002 35.9819 33.3816 30.8929 28.5239 26.2682 24.1274 22.1022 20.1911 18.3986 16.7203 15.1587 13.7137 12.3844 11.1707 10.0738 9.09291 8.22809 7.48128 6.85046 6.33653 5.93936 5.65944 5.49631 5.45039 5.52159 5.71006 6.01584 6.43872 6.97933 7.63748 8.4133 9.30604 10.3169 11.4456 12.6923 14.056 15.5383 17.1381 18.8559 20.6916 22.6453 24.7178 26.9083 29.2174 31.6436 34.1885 36.851 39.6333 42.5333 45.5507 48.6869 51.9434 55.317 58.8091 62.4201 66.1502 69.9977 73.9646 78.0497 82.2536 86.5766 91.0182 95.5789 100.258 105.056 109.972 115.008 120.162 125.435 130.827 136.338 141.968 147.716 153.584 159.571 165.677 171.902 178.245 184.708 191.288 197.99 204.81 211.749 218.807 
94.1005 89.6682 85.3486 81.1418 77.0475 73.0685 69.2072 65.4548 61.8178 58.3073 54.8995 51.6138 48.4403 45.3846 42.4439 39.6216 36.9143 34.322 31.8482 29.4887 27.2466 25.121 23.113 21.2209 19.4466 17.7899 16.2502 14.8271 13.5221 12.3347 11.2647 10.3119 9.47632 8.75964 8.1605 7.67914 7.31564 7.07008 6.94294 6.9339 7.04305 7.27047 7.61627 8.0802 8.66286 9.36393 10.1831 11.1211 12.1782 13.3532 14.6473 16.0595 17.5909 19.2404 21.0098 22.8966 24.9029 27.0289 29.2724 31.6363 34.119 36.7206 39.4409 42.2798 45.2387 48.3169 51.5136 54.8301 58.2644 61.8193 65.4922 69.2854 73.1967 77.2283 81.3792 85.649 90.0384 94.5467 99.1742 103.922 108.788 113.775 118.879 124.104 129.449 134.913 140.495 146.197 152.018 157.959 164.019 170.198 176.498 182.916 189.455 196.112 202.889 209.785 216.801 223.937 231.191 
91.5769 87.2115 82.9673 78.8362 74.823 70.9278 67.1462 63.4855 59.9352 56.5063 53.1933 49.9946 46.9137 43.9511 41.1073 38.3768 35.7675 33.2734 30.9002 28.6416 26.503 24.4817 22.5782 20.7934 19.1259 17.5785 16.148 14.8354 13.6415 12.5673 11.6113 10.773 10.0545 9.45381 8.97224 8.60971 8.36618 8.24155 8.23593 8.34935 8.58183 8.93328 9.40396 9.99402 10.7031 11.5317 12.4792 13.5464 14.7329 16.0385 17.4637 19.0083 20.6721 22.4556 24.3591 26.381 28.5224 30.7844 33.1653 35.6657 38.287 41.0265 43.8872 46.8663 49.964 53.1833 56.5209 59.9791 63.5582 67.2557 71.0717 75.0064 79.0643 83.2393 87.5352 91.951 96.4864 101.141 105.915 110.811 115.825 120.96 126.215 131.587 137.08 142.693 148.426 154.278 160.251 166.343 172.555 178.887 185.339 191.909 198.6 205.411 212.342 219.392 226.562 233.851 241.261 
89.8024 85.5024 81.3162 77.2442 73.2941 69.4616 65.7353 62.1326 58.6549 55.2873 52.044 48.9124 45.899 43.0083 40.2323 37.5765 35.0399 32.6201 30.3193 28.1396 26.0749 24.1316 22.3071 20.6016 19.0153 17.5465 16.1983 14.9687 13.8593 12.8682 11.9962 11.2443 10.6119 10.0982 9.70458 9.43057 9.27607 9.24118 9.32596 9.53043 9.85452 10.2984 10.8622 11.5454 12.349 13.272 14.3147 15.4775 16.76 18.1625 19.6841 21.3267 23.0894 24.9714 26.9732 29.0955 31.3364 33.6993 36.1808 38.7826 41.5065 44.3469 47.3098 50.3913 53.5931 56.9155 60.3579 63.9195 67.6002 71.4036 75.326 79.3688 83.5308 87.8127 92.2137 96.7359 101.378 106.141 111.023 116.026 121.148 126.39 131.754 137.236 142.837 148.559 154.403 160.364 166.446 172.649 178.971 185.413 191.976 198.657 205.459 212.381 219.423 226.585 233.867 241.268 248.789 
88.5542 84.2903 80.1445 76.1243 72.2101 68.4203 64.7456 61.1882 57.7505 54.4349 51.236 48.1586 45.1955 42.3524 39.6291 37.0233 34.5369 32.1729 29.9274 27.7999 25.7929 23.9034 22.1352 20.4862 18.9564 17.5467 16.2567 15.0856 14.035 13.104 12.2932 11.6024 11.0309 10.5794 10.2482 10.0367 9.94544 9.9741 10.1229 10.3917 10.7805 11.2896 11.9187 12.668 13.5372 14.5266 15.6365 16.8663 18.2171 19.6868 21.2772 22.988 24.8181 26.7692 28.8404 31.0317 33.3434 35.7754 38.3273 40.9998 43.7924 46.7046 49.7376 52.8907 56.1633 59.5572 63.0704 66.7041 70.4592 74.3323 78.3271 82.4424 86.6765 91.0326 95.5071 100.102 104.818 109.653 114.608 119.685 124.881 130.198 135.634 141.19 146.866 152.663 158.579 164.617 170.771 177.049 183.445 189.962 196.6 203.355 210.233 217.23 224.346 231.583 238.939 246.416 254.012 
87.6042 83.3708 79.2596 75.2626 71.3833 67.624 63.9818 60.4627 57.0594 53.7786 50.6154 47.5709 44.6454 41.839 39.1517 36.5841 34.138 31.8095 29.6052 27.5169 25.5478 23.7001 21.9723 20.3629 18.8745 17.5063 16.2575 15.1291 14.1212 13.2327 12.4645 11.817 11.2892 10.8816 10.5942 10.427 10.3799 10.4531 10.6466 10.9603 11.3943 11.9485 12.6234 13.4181 14.3335 15.3692 16.5252 17.8015 19.1977 20.7145 22.3513 24.1085 25.9859 27.9841 30.1028 32.3405 34.6994 37.1786 39.7777 42.4973 45.3369 48.2979 51.3781 54.5789 57.901 61.3405 64.9015 68.5846 72.3864 76.3088 80.3515 84.5136 88.7963 93.2 97.7232 102.367 107.129 112.012 117.017 122.142 127.385 132.749 138.234 143.838 149.562 155.405 161.369 167.454 173.66 179.985 186.429 192.995 199.679 206.483 213.408 220.453 227.618 234.903 242.307 249.831 257.475 
86.7964 82.5855 78.4964 74.5238 70.6721 66.9364 63.3229 59.8305 56.4565 53.2015 50.0665 47.051 44.1558 41.3795 38.7234 36.1857 33.7687 31.4708 29.2947 27.2363 25.2996 23.4818 21.7847 20.2075 18.7513 17.4139 16.1969 15.101 14.1241 13.268 12.5321 11.9164 11.4207 11.0454 10.7905 10.6558 10.6413 10.7471 10.9732 11.3197 11.7867 12.3739 13.0814 13.9092 14.8574 15.926 17.1143 18.4229 19.8525 21.4018 23.073 24.8633 26.7731 28.8045 30.9561 33.2269 35.6187 38.1304 40.7623 43.5149 46.3876 49.3805 52.4933 55.7262 59.0805 62.5545 66.1484 69.8621 73.6964 77.6517 81.7256 85.9208 90.236 94.671 99.2261 103.902 108.697 113.613 118.648 123.803 129.08 134.475 139.991 145.625 151.382 157.257 163.252 169.368 175.604 181.96 188.435 195.03 201.745 208.581 215.536 222.611 229.805 237.12 244.554 252.109 259.783 
86.0367 81.8497 77.783 73.8394 70.011 66.2999 62.7122 59.2415 55.893 52.662 49.5512 46.5609 43.6898 40.9382 38.3075 35.7961 33.4044 31.1326 28.9817 26.9497 25.039 23.247 21.5765 20.0252 18.5946 17.2834 16.0924 15.0218 14.0717 13.2415 12.5319 11.9421 11.4729 11.1238 10.8949 10.7863 10.7979 10.9298 11.1819 11.5544 12.0471 12.6599 13.3929 14.2466 15.2203 16.3142 17.5286 18.863 20.3177 21.8929 23.588 25.4033 27.3383 29.3951 31.5706 33.8669 36.2834 38.8197 41.4763 44.2535 47.1506 50.1671 53.3042 56.5618 59.9391 63.4367 67.0538 70.7919 74.6499 78.6281 82.7258 86.9433 91.2809 95.7391 100.317 105.015 109.833 114.77 119.828 125.006 130.304 135.721 141.259 146.916 152.694 158.59 164.607 170.744 177.001 183.377 189.873 196.489 203.225 210.081 217.056 224.151 231.366 238.7 246.155 253.728 261.422 
85.3141 81.1516 77.107 73.1808 69.3748 65.6878 62.1231 58.6759 55.3473 52.1397 49.0532 46.0853 43.2372 40.5092 37.9008 35.4139 33.0451 30.7972 28.6693 26.6605 24.7721 23.0041 21.3565 19.8291 18.4207 17.1337 15.9657 14.9181 13.9908 13.184 12.4968 11.9298 11.4834 11.1569 10.9505 10.8643 10.8983 11.0524 11.3267 11.7213 12.2359 12.8706 13.6257 14.5006 15.496 16.6113 17.8472 19.2026 20.6784 22.274 23.99 25.826 27.7823 29.8583 32.0544 34.3711 36.8072 39.3634 42.0397 44.8366 47.753 50.7892 53.9454 57.2221 60.6184 64.1345 67.771 71.527 75.4036 79.3996 83.5153 87.7515 92.1071 96.5826 101.178 105.894 110.728 115.684 120.758 125.953 131.266 136.701 142.255 147.928 153.721 159.634 165.667 171.819 178.092 184.483 190.995 197.626 204.377 211.247 218.238 225.347 232.576 239.926 247.394 254.982 262.689 
84.6214 80.4815 76.4551 72.5521 68.7677 65.1038 61.5605 58.1361 54.8261 51.6431 48.5754 45.631 42.8045 40.0984 37.5131 35.0458 32.6989 30.4727 28.3656 26.3791 24.5128 22.7655 21.1385 19.6322 18.2458 16.9792 15.8329 14.8061 13.8995 13.113 12.4466 11.9003 11.4739 11.1677 10.9814 10.9151 10.969 11.1428 11.4366 11.8506 12.3845 13.0385 13.8124 14.7064 15.7204 16.8545 18.1083 19.4822 20.9761 22.5901 24.3238 26.1776 28.1512 30.2447 32.4584 34.7918 37.2451 39.8184 42.5115 45.3246 48.2576 51.3101 54.4823 57.7748 61.1871 64.7191 68.3705 72.1417 76.0338 80.0446 84.1751 88.4256 92.7963 97.2862 101.896 106.626 111.474 116.444 121.532 126.739 132.068 137.515 143.082 148.768 154.574 160.5 166.546 172.71 178.995 185.398 191.922 198.565 205.328 212.21 219.211 226.332 233.572 240.932 248.411 256.01 263.728 
83.9718 79.853 75.8472 71.9654 68.2024 64.5577 61.0333 57.6277 54.3432 51.1774 48.1323 45.207 42.4009 39.7147 37.1488 34.7028 32.376 30.1683 28.0816 26.1147 24.2677 22.5404 20.9332 19.4455 18.0782 16.8309 15.7033 14.6955 13.8076 13.0398 12.3916 11.8637 11.4556 11.1673 10.999 10.9506 11.022 11.2133 11.5246 11.9555 12.5066 13.1775 13.9681 14.8789 15.9092 17.0593 18.3293 19.7193 21.229 22.8585 24.6081 26.4772 28.4661 30.5749 32.8032 35.1515 37.6197 40.2071 42.9146 45.7418 48.6886 51.7552 54.9416 58.2473 61.6728 65.2181 68.8828 72.6676 76.5716 80.5954 84.7382 89.0011 93.3842 97.8865 102.507 107.249 112.109 117.09 122.19 127.409 132.748 138.206 143.783 149.481 155.297 161.233 167.289 173.464 179.758 186.172 192.705 199.357 206.129 213.021 220.031 227.161 234.41 241.779 249.266 256.873 264.6 
83.381 79.278 75.2953 71.4298 67.6868 64.0615 60.5553 57.1693 53.9026 50.7545 47.7277 44.8207 42.0332 39.3651 36.8181 34.39 32.0805 29.8919 27.8227 25.8733 24.0437 22.3341 20.7439 19.2743 17.9238 16.6934 15.5826 14.592 13.7208 12.9692 12.3377 11.8257 11.4337 11.1614 11.0089 10.9761 11.0631 11.2698 11.5962 12.0424 12.6082 13.2939 14.0992 15.0243 16.069 17.2337 18.5178 19.9216 21.445 23.088 24.8508 26.7332 28.7353 30.8567 33.0982 35.4591 37.9398 40.5401 43.2595 46.0987 49.0576 52.1357 55.3337 58.6512 62.088 65.6444 69.3208 73.1158 77.031 81.0651 85.2189 89.4923 93.8851 98.3971 103.029 107.78 112.65 117.64 122.749 127.978 133.325 138.793 144.379 150.085 155.91 161.854 167.918 174.101 180.404 186.826 193.367 200.027 206.806 213.705 220.723 227.86 235.116 242.492 249.986 257.601 265.334 
82.8491 78.7613 74.7956 70.9474 67.2209 63.6129 60.125 56.7563 53.5056 50.3751 47.3636 44.4744 41.704 39.053 36.5213 34.1087 31.8157 29.6435 27.59 25.6564 23.8429 22.1492 20.5746 19.1196 17.7846 16.5691 15.4735 14.4975 13.6407 12.9039 12.2867 11.789 11.411 11.1527 11.014 10.9949 11.0954 11.3154 11.6552 12.1144 12.6932 13.3918 14.2097 15.1474 16.2047 17.3813 18.6775 20.0932 21.6285 23.2833 25.0576 26.9513 28.9647 31.0974 33.3495 35.7214 38.2128 40.8233 43.5534 46.403 49.3715 52.4601 55.6677 58.9952 62.4416 66.0075 69.6928 73.4974 77.421 81.4646 85.6272 89.909 94.3099 98.8304 103.471 108.23 113.108 118.106 123.223 128.459 133.815 139.289 144.883 150.596 156.428 162.38 168.45 174.64 180.949 187.377 193.925 200.591 207.377 214.281 221.305 228.448 235.71 243.091 250.591 258.211 265.949 
82.3729 78.303 74.3537 70.5215 66.8089 63.2158 59.7442 56.39 53.1535 50.039 47.0437 44.167 41.4107 38.7753 36.258 33.8611 31.5827 29.4238 27.3848 25.4652 23.665 21.9845 20.4244 18.9825 17.6608 16.4587 15.3758 14.4129 13.5689 12.8447 12.2401 11.7549 11.3891 11.143 11.0163 11.009 11.1212 11.353 11.7041 12.1748 12.7647 13.4743 14.3032 15.2516 16.3193 17.5066 18.8132 20.2391 21.7844 23.4493 25.2335 27.1369 29.1597 31.3019 33.5636 35.9444 38.445 41.0645 43.8035 46.6614 49.6389 52.7357 55.9519 59.2871 62.7416 66.3154 70.0085 73.8209 77.7523 81.8032 85.973 90.2622 94.6706 99.198 103.845 108.611 113.496 118.5 123.623 128.866 134.228 139.708 145.308 151.027 156.865 162.822 168.898 175.094 181.408 187.842 194.393 201.065 207.856 214.766 221.794 228.942 236.209 243.594 251.099 258.722 266.465 
81.9551 77.8978 73.961 70.1428 66.4455 62.8673 59.4077 56.0676 52.8464 49.7444 46.7626 43.8991 41.1555 38.5328 36.0283 33.6437 31.3777 29.2315 27.2041 25.2968 23.5095 21.841 20.2916 18.8623 17.5523 16.3616 15.29 14.3383 13.5057 12.7925 12.1987 11.7241 11.3691 11.1333 11.017 11.02 11.1423 11.384 11.745 12.2254 12.825 13.544 14.3825 15.34 16.4169 17.613 18.9284 20.3633 21.9172 23.5907 25.3832 27.2946 29.326 31.4761 33.7455 36.1343 38.6422 41.2691 44.0154 46.8808 49.8655 52.9694 56.1923 59.5346 62.9958 66.5764 70.2762 74.0948 78.0327 82.0897 86.2659 90.5612 94.9751 99.5086 104.161 108.933 113.823 118.833 123.962 129.209 134.576 140.062 145.667 151.39 157.233 163.195 169.275 175.475 181.794 188.232 194.789 201.464 208.259 215.172 222.205 229.356 236.626 244.016 251.524 259.151 266.897 
81.5877 77.5446 73.6196 69.8139 66.1286 62.5615 59.1132 55.7857 52.5771 49.487 46.5159 43.6665 40.9342 38.3218 35.8287 33.455 31.2007 29.0654 27.0489 25.1516 23.375 21.7162 20.1777 18.7585 17.4582 16.2773 15.2159 14.2736 13.4505 12.7468 12.1625 11.6972 11.3512 11.1245 11.017 11.0288 11.1598 11.41 11.7795 12.2682 12.876 13.6031 14.4494 15.4149 16.4995 17.7034 19.0264 20.4685 22.0302 23.7104 25.5102 27.4289 29.4664 31.6237 33.8997 36.2952 38.8096 41.443 44.1956 47.0672 50.0577 53.1679 56.3966 59.7445 63.2114 66.7979 70.5031 74.3269 78.2701 82.332 86.5131 90.8133 95.2325 99.7707 104.428 109.204 114.1 119.114 124.247 129.499 134.87 140.36 145.968 151.696 157.543 163.508 169.593 175.796 182.118 188.56 195.12 201.799 208.597 215.514 222.549 229.704 236.976 244.369 251.88 259.51 267.259 
81.2675 77.2357 73.3234 69.5294 65.8527 62.2966 58.8593 55.5416 52.3443 49.2646 46.3039 43.4627 40.7417 38.1392 35.6556 33.2908 31.0462 28.9204 26.9137 25.0257 23.2587 21.6097 20.0793 18.6685 17.3769 16.2052 15.1516 14.2177 13.403 12.7076 12.1311 11.6736 11.3355 11.1165 11.0166 11.0359 11.1743 11.4319 11.8086 12.3043 12.9192 13.6532 14.5061 15.4783 16.5697 17.7799 19.1094 20.5581 22.1255 23.812 25.6178 27.5426 29.5862 31.7491 34.0304 36.4315 38.9515 41.5902 44.3478 47.2247 50.2206 53.3355 56.5691 59.9219 63.3934 66.9849 70.6942 74.5229 78.4705 82.5368 86.7224 91.0268 95.4501 99.9926 104.654 109.433 114.332 119.35 124.487 129.742 135.117 140.61 146.222 151.953 157.803 163.772 169.86 176.066 182.391 188.835 195.398 202.08 208.88 215.8 222.838 229.995 237.27 244.665 252.178 259.81 267.561 
80.9919 76.9714 73.0652 69.2803 65.6137 62.0692 58.6408 55.3316 52.1434 49.0729 46.1219 43.2883 40.5756 37.9813 35.5055 33.1501 30.9137 28.7965 26.7976 24.9183 23.1581 21.5169 19.9942 18.5917 17.3074 16.1426 15.0965 14.1698 13.3621 12.6734 12.1039 11.6534 11.3219 11.1095 11.0162 11.0418 11.1865 11.4504 11.8331 12.335 12.9557 13.6956 14.5545 15.5324 16.6293 17.8451 19.18 20.6339 22.2067 23.8981 25.709 27.6388 29.6875 31.8547 34.1415 36.547 39.0714 41.7148 44.4768 47.358 50.3583 53.4777 56.7154 60.0717 63.548 67.1425 70.856 74.6883 78.6395 82.7094 86.8984 91.2064 95.6334 100.179 104.843 109.626 114.528 119.549 124.689 129.948 135.325 140.821 146.436 152.17 158.022 163.993 170.084 176.292 182.62 189.066 195.632 202.315 209.118 216.039 223.08 230.239 237.517 244.913 252.428 260.062 267.815 
80.7546 76.7445 72.8474 69.0683 65.4108 61.8721 58.4513 55.1508 51.9689 48.906 45.963 43.1387 40.4327 37.8463 35.3786 33.0295 30.8004 28.6893 26.6985 24.8257 23.0715 21.4375 19.9215 18.5246 17.2479 16.0891 15.0494 14.1288 13.3275 12.6445 12.0808 11.6361 11.3103 11.1035 11.0157 11.0468 11.1969 11.466 11.854 12.3609 12.9869 13.7317 14.5954 15.5782 16.6797 17.9 19.2392 20.6977 22.2753 23.9715 25.7861 27.7202 29.7732 31.9447 34.2354 36.6444 39.1729 41.8202 44.5863 47.4706 50.4744 53.5971 56.8384 60.1986 63.6778 67.2758 70.9924 74.8275 78.782 82.8554 87.0475 91.3581 95.7878 100.336 105.003 109.789 114.693 119.717 124.859 130.12 135.5 140.998 146.615 152.351 158.206 164.179 170.272 176.483 182.812 189.261 195.827 202.514 209.318 216.241 223.282 230.444 237.723 245.121 252.637 260.273 268.027 
80.5525 76.5427 72.6562 68.8856 65.2351 61.703 58.2898 54.9952 51.8214 48.7646 45.828 43.0098 40.3118 37.7306 35.2687 32.927 30.7038 28.5996 26.6136 24.7466 22.9988 21.3702 19.8601 18.4694 17.1975 16.0439 15.0096 14.0941 13.2975 12.6199 12.0611 11.6213 11.3004 11.0984 11.0153 11.051 11.2057 11.4792 11.8716 12.3828 13.0128 13.7621 14.6301 15.6169 16.7224 17.9468 19.2899 20.7522 22.3331 24.0331 25.8518 27.7892 29.8456 32.0207 34.3144 36.7274 39.2588 41.9093 44.6781 47.5664 50.5728 53.6982 56.9429 60.3058 63.7874 67.3882 71.1072 74.9459 78.9021 82.9779 87.1724 91.4856 95.9175 100.468 105.138 109.925 114.833 119.858 125.002 130.265 135.647 141.147 146.766 152.504 158.36 164.336 170.429 176.642 182.973 189.423 195.992 202.679 209.485 216.409 223.452 230.614 237.895 245.294 252.812 260.448 268.204 
80.3827 76.381 72.498 68.7344 65.0903 61.563 58.1554 54.868 51.6998 48.6496 45.7161 42.9042 40.21 37.6348 35.1768 32.8398 30.6223 28.523 26.5424 24.6805 22.9377 21.3138 19.8085 18.4216 17.154 16.0053 14.9755 14.0641 13.272 12.5987 12.0444 11.6088 11.292 11.094 11.0149 11.0546 11.2131 11.4905 11.8867 12.4016 13.0354 13.788 14.6594 15.6495 16.7585 17.9862 19.3328 20.7982 22.3823 24.0853 25.9069 27.8475 29.9065 32.0843 34.381 36.7968 39.3308 41.9838 44.7561 47.6463 50.6553 53.7833 57.03 60.3954 63.8796 67.4825 71.2041 75.0445 79.0033 83.0807 87.2774 91.5929 96.0265 100.579 105.25 110.04 114.949 119.976 125.122 130.386 135.77 141.272 146.892 152.632 158.49 164.466 170.562 176.776 183.108 189.559 196.129 202.818 209.625 216.55 223.595 230.758 238.04 245.44 252.958 260.596 268.352 
80.2351 76.2379 72.3604 68.6014 64.9623 61.4405 58.0397 54.7569 51.5922 48.5461 45.6199 42.8127 40.1215 37.551 35.1002 32.7674 30.5534 28.4573 26.4809 24.6234 22.8851 21.2649 19.7636 18.381 17.1175 15.9724 14.9464 14.0393 13.2509 12.5811 12.0303 11.5982 11.285 11.0904 11.0146 11.0576 11.2194 11.5 11.8992 12.4173 13.054 13.8098 14.6842 15.6771 16.7888 18.0193 19.3688 20.8367 22.4235 24.1294 25.9534 27.8963 29.958 32.1385 34.4377 36.8554 39.3918 42.0472 44.8211 47.7136 50.725 53.8549 57.1036 60.4709 63.9572 67.5616 71.2853 75.1272 79.088 83.1674 87.3659 91.6825 96.118 100.672 105.345 110.136 115.046 120.075 125.222 130.489 135.873 141.376 146.999 152.739 158.598 164.576 170.673 176.887 183.221 189.673 196.244 202.933 209.742 216.668 223.714 230.877 238.16 245.561 253.081 260.719 268.476 
