# Please cite arXiv:2005.07200
# The chisq between invisible neutrino decay with the given parameters and the IceCube data assuming an initial flavor ratio (1:2:0) for various couplings (all six couplings equal) and initial spectral indices
# m_1 is taken to be zero
# The first row is the parameters:
#   z
# The next two rows define the grid:
#   Couplings
#   gamma
# The remaining rows are the chisq test statistic where the first row is for the smallest coupling and of increasing values of gamma and the second row is of increasing value of the coupling and so on
1
1e-09 1.09648e-09 1.20226e-09 1.31826e-09 1.44544e-09 1.58489e-09 1.7378e-09 1.90546e-09 2.0893e-09 2.29087e-09 2.51189e-09 2.75423e-09 3.01995e-09 3.31131e-09 3.63078e-09 3.98107e-09 4.36516e-09 4.7863e-09 5.24807e-09 5.7544e-09 6.30957e-09 6.91831e-09 7.58578e-09 8.31764e-09 9.12011e-09 1e-08 1.09648e-08 1.20226e-08 1.31826e-08 1.44544e-08 1.58489e-08 1.7378e-08 1.90546e-08 2.0893e-08 2.29087e-08 2.51189e-08 2.75423e-08 3.01995e-08 3.31131e-08 3.63078e-08 3.98107e-08 4.36516e-08 4.7863e-08 5.24807e-08 5.7544e-08 6.30957e-08 6.91831e-08 7.58578e-08 8.31764e-08 9.12011e-08 1e-07 1.09648e-07 1.20226e-07 1.31826e-07 1.44544e-07 1.58489e-07 1.7378e-07 1.90546e-07 2.0893e-07 2.29087e-07 2.51189e-07 2.75423e-07 3.01995e-07 3.31131e-07 3.63078e-07 3.98107e-07 4.36516e-07 4.7863e-07 5.24807e-07 5.7544e-07 6.30957e-07 6.91831e-07 7.58578e-07 8.31764e-07 9.12011e-07 1e-06 1.09648e-06 1.20226e-06 1.31826e-06 1.44544e-06 1.58489e-06 1.7378e-06 1.90546e-06 2.0893e-06 2.29087e-06 2.51189e-06 2.75423e-06 3.01995e-06 3.31131e-06 3.63078e-06 3.98107e-06 4.36516e-06 4.7863e-06 5.24807e-06 5.7544e-06 6.30957e-06 6.91831e-06 7.58578e-06 8.31764e-06 9.12011e-06 1e-05 
2 2.015 2.03 2.045 2.06 2.075 2.09 2.105 2.12 2.135 2.15 2.165 2.18 2.195 2.21 2.225 2.24 2.255 2.27 2.285 2.3 2.315 2.33 2.345 2.36 2.375 2.39 2.405 2.42 2.435 2.45 2.465 2.48 2.495 2.51 2.525 2.54 2.555 2.57 2.585 2.6 2.615 2.63 2.645 2.66 2.675 2.69 2.705 2.72 2.735 2.75 2.765 2.78 2.795 2.81 2.825 2.84 2.855 2.87 2.885 2.9 2.915 2.93 2.945 2.96 2.975 2.99 3.005 3.02 3.035 3.05 3.065 3.08 3.095 3.11 3.125 3.14 3.155 3.17 3.185 3.2 3.215 3.23 3.245 3.26 3.275 3.29 3.305 3.32 3.335 3.35 3.365 3.38 3.395 3.41 3.425 3.44 3.455 3.47 3.485 3.5 
79.4655 75.4975 71.6479 67.9168 64.3042 60.81 57.4343 54.177 51.0382 48.0179 45.1161 42.3327 39.6677 37.1213 34.6933 32.3837 30.1927 28.1201 26.1659 24.3302 22.613 21.0143 19.534 18.1721 16.9288 15.8039 14.7975 13.9095 13.14 12.4889 11.9564 11.5423 11.2466 11.0694 11.0107 11.0704 11.2486 11.5453 11.9604 12.494 13.1461 13.9166 14.8056 15.8131 16.939 18.1834 19.5462 21.0275 22.6273 24.3455 26.1822 28.1374 30.211 32.4031 34.7137 37.1427 39.6902 42.3562 45.1406 48.0434 51.0648 54.2046 57.4629 60.8396 64.3348 67.9484 71.6806 75.5312 79.5002 83.5877 87.7937 92.1182 96.5611 101.122 105.802 110.601 115.517 120.553 125.706 130.978 136.369 141.878 147.506 153.252 159.116 165.099 171.201 177.42 183.759 190.215 196.791 203.484 210.297 217.227 224.276 231.444 238.73 246.135 253.658 261.299 269.059 
79.4688 75.5007 71.651 67.9198 64.307 60.8127 57.4369 54.1796 51.0407 48.0202 45.1182 42.3347 39.6697 37.1231 34.695 32.3853 30.1941 28.1214 26.1672 24.3314 22.614 21.0152 19.5348 18.1728 16.9293 15.8043 14.7978 13.9097 13.1401 12.4889 11.9562 11.542 11.2462 11.0689 11.0101 11.0697 11.2478 11.5443 11.9594 12.4928 13.1448 13.9152 14.8041 15.8114 16.9372 18.1815 19.5442 21.0254 22.6251 24.3432 26.1798 28.1348 30.2083 32.4003 34.7107 37.1396 39.687 42.3528 45.1371 48.0399 51.0611 54.2008 57.459 60.8356 64.3307 67.9442 71.6762 75.5267 79.4956 83.583 87.7889 92.1132 96.556 101.117 105.797 110.595 115.512 120.547 125.701 130.973 136.363 141.872 147.499 153.245 159.11 165.093 171.194 177.414 183.752 190.208 196.784 203.477 210.289 217.22 224.269 231.436 238.722 246.127 253.649 261.291 269.051 
79.4729 75.5046 71.6548 67.9234 64.3105 60.8161 57.4401 54.1826 51.0435 48.023 45.1209 42.3372 39.672 37.1253 34.697 32.3873 30.1959 28.1231 26.1687 24.3327 22.6152 21.0162 19.5357 18.1736 16.93 15.8048 14.7981 13.9099 13.1402 12.4889 11.956 11.5417 11.2457 11.0683 11.0093 11.0688 11.2468 11.5432 11.9581 12.4914 13.1432 13.9135 14.8022 15.8094 16.9351 18.1792 19.5418 21.0228 22.6223 24.3403 26.1768 28.1317 30.2051 32.3969 34.7072 37.136 39.6832 42.3489 45.133 48.0357 51.0567 54.1963 57.4543 60.8308 64.3257 67.9391 71.671 75.5213 79.4901 83.5774 87.7831 92.1073 96.5499 101.111 105.791 110.589 115.505 120.54 125.694 130.965 136.356 141.865 147.492 153.238 159.102 165.085 171.186 177.405 183.743 190.2 196.775 203.468 210.28 217.211 224.26 231.427 238.713 246.117 253.64 261.281 269.041 
79.4777 75.5092 71.6592 67.9277 64.3147 60.8201 57.4439 54.1862 51.047 48.0263 45.124 42.3402 39.6748 37.1279 34.6995 32.3896 30.1981 28.125 26.1705 24.3343 22.6167 21.0175 19.5368 18.1746 16.9308 15.8055 14.7986 13.9102 13.1403 12.4888 11.9558 11.5413 11.2452 11.0676 11.0084 11.0677 11.2455 11.5418 11.9565 12.4897 13.1413 13.9114 14.8 15.807 16.9325 18.1764 19.5389 21.0197 22.6191 24.3369 26.1732 28.1279 30.2011 32.3928 34.7029 37.1315 39.6786 42.3441 45.1281 48.0305 51.0515 54.1908 57.4487 60.825 64.3198 67.933 71.6647 75.5149 79.4835 83.5706 87.7761 92.1002 96.5426 101.104 105.783 110.581 115.497 120.532 125.685 130.957 136.347 141.856 147.483 153.229 159.093 165.075 171.176 177.396 183.733 190.19 196.765 203.458 210.27 217.2 224.249 231.416 238.701 246.106 253.628 261.269 269.029 
79.4835 75.5148 71.6646 67.9329 64.3196 60.8248 57.4485 54.1906 51.0512 48.0303 45.1278 42.3438 39.6782 37.1311 34.7025 32.3923 30.2006 28.1274 26.1726 24.3363 22.6185 21.0191 19.5382 18.1757 16.9317 15.8062 14.7991 13.9105 13.1404 12.4887 11.9555 11.5408 11.2445 11.0667 11.0074 11.0665 11.244 11.5401 11.9546 12.4876 13.139 13.9089 14.7973 15.8041 16.9294 18.1731 19.5354 21.016 22.6152 24.3328 26.1689 28.1234 30.1964 32.3879 34.6978 37.1262 39.6731 42.3384 45.1222 48.0244 51.0451 54.1843 57.4419 60.818 64.3126 67.9256 71.6571 75.5071 79.4755 83.5624 87.7678 92.0916 96.5339 101.095 105.774 110.571 115.488 120.522 125.675 130.947 136.337 141.845 147.472 153.218 159.081 165.064 171.165 177.384 183.721 190.178 196.752 203.445 210.257 217.187 224.235 231.402 238.688 246.092 253.614 261.255 269.014 
79.4905 75.5216 71.6711 67.9392 64.3257 60.8306 57.454 54.1959 51.0563 48.0351 45.1323 42.3481 39.6823 37.1349 34.7061 32.3957 30.2037 28.1302 26.1752 24.3387 22.6206 21.021 19.5398 18.1771 16.9329 15.8071 14.7998 13.9109 13.1406 12.4887 11.9552 11.5402 11.2437 11.0657 11.0061 11.0649 11.2423 11.5381 11.9523 12.4851 13.1362 13.9059 14.794 15.8006 16.9256 18.1692 19.5311 21.0116 22.6105 24.3278 26.1637 28.118 30.1907 32.3819 34.6916 37.1198 39.6664 42.3315 45.115 48.017 51.0375 54.1764 57.4338 60.8097 64.304 67.9168 71.6481 75.4978 79.466 83.5526 87.7577 92.0813 96.5233 101.084 105.763 110.56 115.476 120.51 125.663 130.935 136.324 141.833 147.459 153.204 159.068 165.05 171.151 177.37 183.707 190.163 196.737 203.43 210.242 217.171 224.22 231.386 238.671 246.075 253.597 261.238 268.997 
79.4989 75.5297 71.679 67.9467 64.3329 60.8375 57.4607 54.2023 51.0623 48.0408 45.1378 42.3532 39.6872 37.1395 34.7104 32.3997 30.2074 28.1336 26.1783 24.3415 22.6231 21.0232 19.5417 18.1788 16.9342 15.8082 14.8006 13.9114 13.1408 12.4886 11.9548 11.5395 11.2427 11.0644 11.0045 11.0631 11.2401 11.5356 11.9496 12.482 13.1329 13.9023 14.7901 15.7964 16.9212 18.1644 19.5261 21.0062 22.6048 24.3219 26.1574 28.1114 30.1839 32.3748 34.6842 37.1121 39.6584 42.3232 45.1064 48.0082 51.0283 54.167 57.4241 60.7996 64.2937 67.9062 71.6371 75.4866 79.4545 83.5408 87.7456 92.0689 96.5106 101.071 105.75 110.547 115.462 120.496 125.649 130.92 136.309 141.817 147.444 153.188 159.052 165.034 171.134 177.352 183.69 190.145 196.719 203.412 210.223 217.152 224.2 231.367 238.652 246.055 253.577 261.217 268.976 
79.509 75.5394 71.6883 67.9557 64.3416 60.8459 57.4686 54.2099 51.0696 48.0477 45.1444 42.3595 39.693 37.145 34.7155 32.4045 30.2119 28.1378 26.1821 24.3449 22.6262 21.0259 19.5441 18.1808 16.9359 15.8095 14.8015 13.912 13.141 12.4885 11.9544 11.5387 11.2416 11.0629 11.0026 11.0609 11.2375 11.5327 11.9463 12.4784 13.129 13.898 14.7854 15.7914 16.9158 18.1586 19.52 20.9998 22.598 24.3147 26.1499 28.1036 30.1757 32.3663 34.6753 37.1028 39.6488 42.3132 45.0961 47.9975 51.0173 54.1556 57.4124 60.7876 64.2813 67.8934 71.624 75.4731 79.4406 83.5266 87.7311 92.054 96.4954 101.055 105.734 110.53 115.446 120.479 125.632 130.902 136.291 141.799 147.425 153.169 159.032 165.014 171.114 177.332 183.669 190.124 196.698 203.39 210.201 217.13 224.177 231.344 238.628 246.031 253.552 261.192 268.951 
79.5211 75.5511 71.6996 67.9666 64.352 60.8559 57.4782 54.219 51.0783 48.0561 45.1523 42.3669 39.7001 37.1517 34.7217 32.4103 30.2172 28.1427 26.1866 24.349 22.6298 21.0292 19.5469 18.1832 16.9379 15.811 14.8027 13.9127 13.1413 12.4883 11.9538 11.5378 11.2402 11.061 11.0004 11.0582 11.2345 11.5292 11.9424 12.474 13.1242 13.8928 14.7798 15.7853 16.9093 18.1517 19.5127 20.992 22.5899 24.3062 26.1409 28.0942 30.1658 32.356 34.6646 37.0917 39.6372 42.3013 45.0837 47.9847 51.0041 54.1419 57.3983 60.7731 64.2663 67.878 71.6082 75.4569 79.424 83.5096 87.7136 92.0361 96.4771 101.037 105.714 110.511 115.426 120.459 125.611 130.881 136.27 141.777 147.402 153.146 159.009 164.99 171.089 177.307 183.644 190.099 196.672 203.364 210.174 217.103 224.15 231.315 238.6 246.002 253.523 261.163 268.921 
79.5357 75.5652 71.7132 67.9796 64.3645 60.8679 57.4898 54.2301 51.0888 48.0661 45.1618 42.3759 39.7086 37.1596 34.7292 32.4172 30.2237 28.1486 26.192 24.3539 22.6343 21.0331 19.5503 18.1861 16.9402 15.8129 14.804 13.9136 13.1417 12.4882 11.9531 11.5366 11.2385 11.0589 10.9977 11.055 11.2307 11.525 11.9377 12.4688 13.1184 13.8865 14.773 15.7781 16.9015 18.1435 19.5039 20.9827 22.58 24.2958 26.1301 28.0828 30.154 32.3436 34.6518 37.0783 39.6234 42.2869 45.0688 47.9693 50.9882 54.1255 57.3813 60.7556 64.2484 67.8596 71.5893 75.4374 79.404 83.4891 87.6926 92.0146 96.4551 101.014 105.691 110.487 115.402 120.434 125.586 130.855 136.243 141.75 147.375 153.119 158.981 164.961 171.06 177.278 183.614 190.068 196.641 203.332 210.142 217.07 224.117 231.282 238.565 245.967 253.488 261.127 268.884 
79.5532 75.5821 71.7295 67.9953 64.3796 60.8824 57.5036 54.2433 51.1015 48.0781 45.1732 42.3867 39.7188 37.1692 34.7382 32.4256 30.2314 28.1558 26.1986 24.3598 22.6396 21.0378 19.5544 18.1895 16.9431 15.8152 14.8057 13.9146 13.1421 12.488 11.9523 11.5352 11.2365 11.0562 10.9944 11.0511 11.2263 11.5199 11.932 12.4625 13.1115 13.879 14.7649 15.7693 16.8922 18.1335 19.4933 20.9715 22.5683 24.2834 26.1171 28.0692 30.1398 32.3288 34.6363 37.0623 39.6067 42.2696 45.0509 47.9508 50.969 54.1058 57.361 60.7347 64.2268 67.8374 71.5665 75.414 79.38 83.4645 87.6674 91.9888 96.4286 100.987 105.664 110.459 115.373 120.405 125.555 130.825 136.212 141.718 147.343 153.086 158.947 164.927 171.025 177.242 183.577 190.031 196.603 203.294 210.103 217.031 224.077 231.241 238.524 245.926 253.446 261.084 268.841 
79.5743 75.6024 71.7491 68.0142 64.3978 60.8998 57.5203 54.2593 51.1167 48.0926 45.1869 42.3997 39.731 37.1808 34.749 32.4356 30.2408 28.1644 26.2064 24.367 22.646 21.0434 19.5593 18.1937 16.9466 15.8179 14.8076 13.9159 13.1426 12.4878 11.9514 11.5335 11.234 11.0531 10.9906 11.0465 11.2209 11.5138 11.9251 12.4549 13.1032 13.87 14.7552 15.7588 16.8809 18.1215 19.4806 20.9581 22.5541 24.2685 26.1014 28.0528 30.1227 32.311 34.6177 37.043 39.5866 42.2488 45.0294 47.9285 50.9461 54.0821 57.3366 60.7095 64.2009 67.8108 71.5391 75.3859 79.3512 83.4349 87.6371 91.9577 96.3969 100.954 105.63 110.425 115.338 120.369 125.519 130.788 136.174 141.68 147.304 153.046 158.906 164.886 170.983 177.199 183.534 189.987 196.558 203.248 210.057 216.983 224.029 231.193 238.475 245.876 253.395 261.032 268.788 
79.5996 75.6269 71.7726 68.0369 64.4196 60.9207 57.5403 54.2784 51.1349 48.1099 45.2034 42.4154 39.7457 37.1946 34.7619 32.4477 30.252 28.1747 26.2159 24.3755 22.6536 21.0502 19.5652 18.1987 16.9507 15.8211 14.81 13.9174 13.1432 12.4875 11.9502 11.5315 11.2311 11.0493 10.9859 11.041 11.2145 11.5065 11.9169 12.4459 13.0933 13.8591 14.7434 15.7462 16.8674 18.1072 19.4653 20.942 22.5371 24.2506 26.0827 28.0332 30.1021 32.2895 34.5954 37.0198 39.5626 42.2238 45.0036 47.9018 50.9185 54.0536 57.3072 60.6792 64.1698 67.7788 71.5062 75.3521 79.3165 83.3993 87.6007 91.9204 96.3587 100.915 105.591 110.384 115.296 120.327 125.476 130.743 136.129 141.634 147.257 152.998 158.858 164.836 170.933 177.148 183.482 189.934 196.504 203.193 210.001 216.927 223.971 231.134 238.415 245.815 253.334 260.97 268.726 
79.63 75.6563 71.801 68.0641 64.4457 60.9458 57.5644 54.3014 51.1569 48.1308 45.2233 42.4341 39.7635 37.2113 34.7775 32.4623 30.2655 28.1871 26.2272 24.3858 22.6629 21.0584 19.5724 18.2048 16.9557 15.8251 14.8129 13.9192 13.144 12.4872 11.9489 11.529 11.2277 11.0447 10.9803 11.0343 11.2068 11.4977 11.9071 12.435 13.0813 13.8461 14.7293 15.7311 16.8512 18.0899 19.447 20.9226 22.5166 24.2291 26.0601 28.0095 30.0774 32.2638 34.5686 36.9919 39.5336 42.1939 44.9725 47.8697 50.8853 54.0194 57.2719 60.6429 64.1324 67.7403 71.4667 75.3115 79.2749 83.3566 87.5569 91.8756 96.3128 100.868 105.543 110.335 115.246 120.276 125.424 130.69 136.075 141.578 147.2 152.94 158.799 164.776 170.872 177.086 183.419 189.87 196.439 203.127 209.934 216.859 223.902 231.064 238.344 245.743 253.26 260.896 268.65 
79.6666 75.6916 71.835 68.0969 64.4772 60.976 57.5933 54.3291 51.1833 48.156 45.2471 42.4567 39.7848 37.2313 34.7963 32.4797 30.2817 28.202 26.2409 24.3982 22.674 21.0682 19.5809 18.2121 16.9617 15.8298 14.8164 13.9214 13.1449 12.4868 11.9473 11.5261 11.2235 11.0393 10.9736 11.0263 11.1975 11.4872 11.8953 12.4219 13.0669 13.8304 14.7124 15.7129 16.8318 18.0692 19.425 20.8993 22.4921 24.2033 26.033 27.9812 30.0478 32.2329 34.5364 36.9584 39.4989 42.1578 44.9353 47.8311 50.8455 53.9783 57.2295 60.5992 64.0874 67.6941 71.4192 75.2628 79.2248 83.3053 87.5043 91.8218 96.2577 100.812 105.485 110.276 115.186 120.214 125.361 130.626 136.01 141.512 147.132 152.871 158.729 164.705 170.799 177.012 183.343 189.793 196.361 203.048 209.853 216.777 223.819 230.979 238.258 245.656 253.172 260.806 268.559 
79.7106 75.734 71.8759 68.1362 64.5151 61.0124 57.6281 54.3623 51.215 48.1861 45.2757 42.4838 39.8104 37.2554 34.8188 32.5007 30.3011 28.22 26.2573 24.4131 22.6873 21.08 19.5912 18.2209 16.969 15.8355 14.8206 13.924 13.146 12.4864 11.9453 11.5227 11.2185 11.0328 10.9655 11.0167 11.1864 11.4745 11.8811 12.4062 13.0497 13.8117 14.6921 15.691 16.8084 18.0443 19.3986 20.8714 22.4626 24.1723 26.0005 27.9471 30.0122 32.1957 34.4978 36.9182 39.4572 42.1146 44.8905 47.7848 50.7976 53.9289 57.1786 60.5468 64.0335 67.6386 71.3622 75.2042 79.1648 83.2437 87.4412 91.7571 96.1915 100.744 105.416 110.205 115.114 120.14 125.285 130.549 135.931 141.432 147.051 152.788 158.644 164.619 170.711 176.923 183.253 189.701 196.267 202.953 209.756 216.678 223.719 230.878 238.156 245.552 253.066 260.699 268.45 
79.7634 75.785 71.925 68.1836 64.5605 61.056 57.6699 54.4023 51.2531 48.2224 45.3102 42.5164 39.8411 37.2843 34.8459 32.526 30.3245 28.2416 26.277 24.431 22.7034 21.0943 19.6036 18.2314 16.9777 15.8424 14.8256 13.9273 13.1474 12.486 11.943 11.5185 11.2125 11.0249 10.9558 11.0052 11.173 11.4593 11.8641 12.3873 13.029 13.7892 14.6678 15.6649 16.7804 18.0144 19.3669 20.8378 22.4272 24.1351 25.9614 27.9062 29.9694 32.1512 34.4513 36.87 39.4071 42.0627 44.8367 47.7292 50.7402 53.8696 57.1175 60.4839 63.9687 67.572 71.2937 75.1339 79.0926 83.1698 87.3654 91.6794 96.112 100.663 105.332 110.12 115.027 120.052 125.195 130.457 135.837 141.336 146.953 152.688 158.543 164.515 170.606 176.816 183.144 189.59 196.155 202.838 209.64 216.56 223.599 230.756 238.032 245.426 252.939 260.57 268.319 
79.8268 75.8462 71.9841 68.2404 64.6152 61.1084 57.7201 54.4503 51.2989 48.266 45.3516 42.5556 39.8781 37.3191 34.8785 32.5564 30.3527 28.2675 26.3008 24.4525 22.7227 21.1114 19.6185 18.2441 16.9882 15.8507 14.8317 13.9311 13.149 12.4854 11.9403 11.5136 11.2053 11.0156 10.9443 10.9914 11.1571 11.4411 11.8437 12.3647 13.0042 13.7621 14.6386 15.6334 16.7468 17.9786 19.3288 20.7976 22.3848 24.0904 25.9145 27.8571 29.9182 32.0977 34.3957 36.8121 39.347 42.0004 44.7722 47.6625 50.6713 53.7985 57.0442 60.4083 63.8909 67.492 71.2116 75.0496 79.006 83.081 87.2744 91.5862 96.0166 100.565 105.233 110.018 114.923 119.945 125.086 130.346 135.724 141.22 146.835 152.569 158.421 164.391 170.48 176.687 183.013 189.457 196.02 202.701 209.501 216.419 223.455 230.61 237.884 245.276 252.786 260.415 268.162 
79.9031 75.9198 72.055 68.3087 64.6808 61.1714 57.7805 54.508 51.354 48.3184 45.4013 42.6027 39.9226 37.3609 34.9176 32.5929 30.3866 28.2987 26.3293 24.4784 22.746 21.132 19.6365 18.2594 17.0008 15.8607 14.839 13.9358 13.1511 12.4848 11.937 11.5077 11.1968 11.0044 10.9304 10.9749 11.1379 11.4194 11.8193 12.3376 12.9745 13.7298 14.6035 15.5957 16.7064 17.9356 19.2832 20.7493 22.3338 24.0368 25.8583 27.7982 29.8566 32.0335 34.3288 36.7426 39.2749 41.9256 44.6948 47.5824 50.5885 53.7131 56.9562 60.3177 63.7976 67.3961 71.1129 74.9483 78.9021 82.9744 87.1652 91.4744 95.9021 100.448 105.113 109.896 114.797 119.817 124.956 130.213 135.588 141.082 146.694 152.425 158.274 164.242 170.328 176.533 182.856 189.298 195.858 202.536 209.333 216.248 223.282 230.435 237.706 245.095 252.603 260.229 267.973 
79.9947 76.0082 72.1402 68.3907 64.7597 61.2471 57.853 54.5773 51.4201 48.3814 45.4611 42.6593 39.976 37.4111 34.9647 32.6367 30.4273 28.3362 26.3637 24.5096 22.774 21.1568 19.6581 18.2779 17.0161 15.8728 14.8479 13.9416 13.1536 12.4842 11.9332 11.5007 11.1866 10.991 10.9139 10.9552 11.115 11.3933 11.79 12.3052 12.9389 13.691 14.5616 15.5506 16.6581 17.8841 19.2285 20.6914 22.2728 23.9726 25.7909 27.7276 29.7829 31.9566 34.2487 36.6593 39.1884 41.8359 44.6019 47.4864 50.4893 53.6107 56.8506 60.2089 63.6857 67.2809 70.9947 74.8268 78.7775 82.8466 87.0342 91.3402 95.7647 100.308 104.969 109.749 114.647 119.664 124.799 130.053 135.425 140.916 146.525 152.253 158.099 164.063 170.146 176.348 182.668 189.106 195.663 202.338 209.132 216.044 223.075 230.224 237.492 244.878 252.383 260.006 267.747 
80.1046 76.1144 72.2426 68.4892 64.8544 61.338 57.94 54.6606 51.4996 48.457 45.5329 42.7273 40.0402 37.4715 35.0212 32.6895 30.4762 28.3813 26.405 24.5471 22.8076 21.1867 19.6841 18.3001 17.0345 15.8874 14.8587 13.9485 13.1568 12.4835 11.9287 11.4924 11.1745 10.9751 10.8942 10.9317 11.0877 11.3621 11.755 12.2664 12.8962 13.6445 14.5113 15.4965 16.6002 17.8224 19.163 20.6221 22.1996 23.8956 25.7101 27.6431 29.6945 31.8643 34.1527 36.5595 39.0847 41.7284 44.4906 47.3713 50.3704 53.488 56.724 60.0785 63.5515 67.1429 70.8528 74.6812 78.628 82.6933 86.8771 91.1793 95.6 100.139 104.797 109.573 114.467 119.48 124.612 129.862 135.23 140.717 146.322 152.046 157.888 163.849 169.928 176.126 182.442 188.877 195.43 202.101 208.891 215.8 222.826 229.972 237.236 244.618 252.119 259.738 267.475 
80.2367 76.2418 72.3655 68.6076 64.9681 61.4471 58.0446 54.7606 51.595 48.5479 45.6192 42.809 40.1173 37.544 35.0892 32.7529 30.535 28.4356 26.4547 24.5922 22.8482 21.2226 19.7155 18.3269 17.0567 15.905 14.8718 13.957 13.1607 12.4829 11.9235 11.4826 11.1601 10.9561 10.8706 10.9036 11.055 11.3248 11.7132 12.22 12.8452 13.589 14.4512 15.4318 16.5309 17.7485 19.0845 20.5391 22.112 23.8035 25.6134 27.5417 29.5886 31.7539 34.0376 36.4398 38.9605 41.5997 44.3573 47.2334 50.2279 53.3409 56.5724 59.9223 63.3907 66.9776 70.6829 74.5067 78.4489 82.5096 86.6888 90.9865 95.4026 99.9371 104.59 109.362 114.252 119.26 124.387 129.632 134.996 140.478 146.079 151.798 157.636 163.592 169.667 175.86 182.171 188.601 195.15 201.817 208.602 215.506 222.528 229.669 236.928 244.306 251.802 259.417 267.15 
80.3951 76.3948 72.513 68.7496 65.1047 61.5782 58.1702 54.8807 51.7096 48.657 45.7228 42.9072 40.21 37.6312 35.1709 32.8291 30.6057 28.5008 26.5144 24.6464 22.8969 21.2659 19.7533 18.3592 17.0836 15.9264 14.8877 13.9674 13.1656 12.4823 11.9174 11.471 11.1431 10.9336 10.8426 10.8701 11.016 11.2804 11.6632 12.1645 12.7843 13.5226 14.3793 15.3544 16.4481 17.6602 18.9907 20.4397 22.0072 23.6932 25.4976 27.4205 29.4618 31.6216 33.8999 36.2966 38.8118 41.4455 44.1976 47.0682 50.0573 53.1648 56.3908 59.7352 63.1981 66.7795 70.4794 74.2977 78.2344 82.2897 86.4634 90.7555 95.1661 99.6952 104.343 109.109 113.993 118.996 124.118 129.357 134.716 140.193 145.788 151.502 157.334 163.284 169.354 175.541 181.847 188.272 194.815 201.476 208.256 215.154 222.171 229.307 236.56 243.932 251.423 259.032 266.76 
80.5853 76.5784 72.69 68.92 65.2685 61.7355 58.3209 55.0248 51.8472 48.788 45.8473 43.0251 40.3213 37.7359 35.2691 32.9207 30.6908 28.5793 26.5863 24.7118 22.9557 21.3181 19.7989 18.3983 17.116 15.9523 14.907 13.9802 13.1718 12.4819 11.9105 11.4575 11.123 10.9069 10.8094 10.8303 10.9696 11.2274 11.6037 12.0984 12.7116 13.4433 14.2934 15.262 16.3491 17.5546 18.8786 20.3211 21.882 23.5614 25.3592 27.2755 29.3103 31.4635 33.7352 36.1254 38.634 41.2611 44.0067 46.8707 49.8532 52.9541 56.1735 59.5114 62.9678 66.5426 70.2358 74.0476 77.9778 82.0264 86.1935 90.4791 94.8832 99.4057 104.047 108.806 113.684 118.68 123.795 129.029 134.38 139.851 145.439 151.146 156.972 162.916 168.979 175.16 181.459 187.877 194.413 201.068 207.842 214.733 221.744 228.872 236.12 243.485 250.969 258.572 266.293 
80.8134 76.7986 72.9024 69.1245 65.4652 61.9243 58.5018 55.1979 52.0123 48.9453 45.9967 43.1666 40.455 37.8618 35.387 33.0308 30.793 28.6737 26.6728 24.7904 23.0264 21.381 19.8539 18.4454 17.1553 15.9837 14.9305 13.9958 13.1796 12.4819 11.9026 11.4417 11.0993 10.8754 10.77 10.783 10.9145 11.1644 11.5328 12.0197 12.6251 13.3489 14.1911 15.1519 16.2311 17.4287 18.7448 20.1794 21.7325 23.404 25.194 27.1024 29.1293 31.2747 33.5385 35.9208 38.4216 41.0408 43.7785 46.6346 49.6093 52.7023 55.9139 59.2439 62.6924 66.2593 69.9447 73.7486 77.6709 81.7117 85.871 90.1487 94.5449 99.0595 103.693 108.444 113.314 118.303 123.41 128.635 133.979 139.441 145.022 150.722 156.539 162.475 168.53 174.703 180.995 187.405 193.934 200.581 207.346 214.23 221.232 228.353 235.592 242.95 250.427 258.021 265.734 
81.0868 77.0627 73.157 69.3697 65.7009 62.1506 58.7188 55.4054 52.2105 49.134 46.176 43.3365 40.6155 38.0129 35.5287 33.1631 30.9159 28.7871 26.7768 24.885 23.1117 21.4568 19.9204 18.5024 17.2029 16.0219 14.9593 14.0152 13.1896 12.4824 11.8937 11.4234 11.0717 10.8383 10.7235 10.7271 10.8492 11.0897 11.4487 11.9262 12.5221 13.2365 14.0694 15.0207 16.0905 17.2787 18.5854 20.0106 21.5542 23.2164 24.9969 26.896 28.9134 31.0494 33.3038 35.6767 38.1681 40.7779 43.5062 46.3529 49.3181 52.4018 55.6039 58.9245 62.3636 65.9211 69.5971 73.3916 77.3045 81.3359 85.4857 89.754 94.1408 98.6461 103.27 108.012 112.873 117.852 122.949 128.165 133.5 138.953 144.524 150.214 156.022 161.949 167.994 174.158 180.44 186.841 193.36 199.998 206.754 213.628 220.621 227.733 234.963 242.311 249.778 257.363 265.067 
81.4144 77.379 73.462 69.6636 65.9835 62.422 58.9789 55.6543 52.4481 49.3604 46.3912 43.5404 40.8081 38.1943 35.6989 33.322 31.0635 28.9236 26.902 24.999 23.2144 21.5483 20.0006 18.5714 17.2607 16.0684 14.9946 14.0392 13.2023 12.4839 11.884 11.4025 11.0395 10.7949 10.6688 10.6612 10.772 11.0013 11.3491 11.8153 12.4 13.1031 13.9247 14.8648 15.9234 17.1004 18.3958 19.8098 21.3422 22.993 24.7624 26.6501 28.6564 30.7811 33.0243 35.3859 37.866 40.4646 43.1817 46.0172 48.9711 52.0436 55.2345 58.5438 61.9716 65.5179 69.1827 72.9659 76.8676 80.8877 85.0263 89.2834 93.6589 98.1529 102.765 107.496 112.346 117.314 122.4 127.605 132.928 138.37 143.93 149.608 155.405 161.321 167.355 173.508 179.779 186.168 192.676 199.302 206.047 212.91 219.892 226.992 234.211 241.548 249.004 256.578 264.27 
81.8065 77.7577 73.8273 70.0154 66.322 62.747 59.2905 55.9525 52.7329 49.6318 46.6492 43.785 41.0393 38.412 35.9032 33.5129 31.241 29.0876 27.0527 25.1362 23.3382 21.6587 20.0976 18.655 17.3308 16.1251 15.0379 14.0691 13.2188 12.487 11.8736 11.3787 11.0023 10.7443 10.6048 10.5837 10.6812 10.897 11.2314 11.6842 12.2555 12.9452 13.7534 14.68 15.7252 16.8888 18.1708 19.5713 21.0903 22.7278 24.4837 26.358 28.3509 30.4622 32.692 35.0402 37.5069 40.092 42.7957 45.6177 48.5583 51.6173 54.7948 58.0907 61.5051 65.038 68.6893 72.4591 76.3474 80.3541 84.4793 88.723 93.0851 97.5657 102.165 106.882 111.718 116.673 121.746 126.937 132.247 137.675 143.222 148.887 154.671 160.573 166.593 172.733 178.99 185.366 191.861 198.473 205.205 212.055 219.023 226.11 233.315 240.639 248.081 255.642 263.321 
82.2755 78.2107 74.2644 70.4365 66.7271 63.1361 59.6636 56.3096 53.074 49.9569 46.9583 44.0781 41.3164 38.6732 36.1484 33.7421 31.4542 29.2849 27.2339 25.3015 23.4875 21.7919 20.2149 18.7563 17.4161 16.1945 15.0913 14.1065 13.2402 12.4924 11.8631 11.3522 10.9597 10.6858 10.5303 10.4932 10.5747 10.7746 11.0929 11.5297 12.085 12.7588 13.551 14.4617 15.4908 16.6384 17.9045 19.289 20.792 22.4135 24.1534 26.0118 27.9886 30.084 32.2977 34.63 37.0807 39.6499 42.3375 45.1436 48.0682 51.1112 54.2727 57.5526 60.9511 64.468 68.1033 71.8571 75.7294 79.7201 83.8293 88.057 92.4031 96.8677 101.451 106.152 110.972 115.911 120.968 126.143 131.437 136.849 142.38 148.029 153.797 159.683 165.688 171.811 178.052 184.412 190.891 197.488 204.203 211.037 217.989 225.06 232.249 239.557 246.983 254.528 262.191 
82.8357 78.7519 74.7866 70.9397 67.2112 63.6013 60.1098 56.7367 53.4822 50.3461 47.3284 44.4292 41.6485 38.9863 36.4425 34.0172 31.7103 29.5219 27.452 25.5005 23.6675 21.953 20.3569 18.8793 17.5201 16.2794 15.1572 14.1535 13.2682 12.5014 11.853 11.3231 10.9117 10.6187 10.4442 10.3881 10.4505 10.6314 10.9308 11.3486 11.8849 12.5396 13.3128 14.2045 15.2146 16.3432 17.5903 18.9558 20.4398 22.0422 23.7631 25.6025 27.5604 29.6367 31.8314 34.1447 36.5764 39.1265 41.7952 44.5822 47.4878 50.5118 53.6543 56.9152 60.2947 63.7925 67.4089 71.1437 74.9969 78.9687 83.0589 87.2675 91.5946 96.0402 100.604 105.287 110.088 115.007 120.045 125.201 130.476 135.87 141.381 147.012 152.76 158.627 164.613 170.717 176.94 183.281 189.74 196.318 203.015 209.829 216.763 223.814 230.985 238.273 245.681 253.206 260.85 
83.504 79.3976 75.4097 71.5403 67.7893 64.1567 60.6427 57.2471 53.97 50.8113 47.7711 44.8494 42.0461 39.3613 36.795 34.3471 32.0177 29.8067 27.7142 25.7402 23.8846 22.1475 20.5289 19.0287 17.647 16.3838 15.239 14.2127 13.3049 12.5155 11.8446 11.2921 10.8581 10.5426 10.3455 10.2669 10.3068 10.4651 10.7419 11.1372 11.6509 12.2831 13.0337 13.9028 14.8904 15.9964 17.2209 18.5639 20.0253 21.6052 23.3036 25.1204 27.0557 29.1095 31.2817 33.5724 35.9815 38.5091 41.1552 43.9197 46.8027 49.8042 52.9241 56.1625 59.5193 62.9947 66.5884 70.3007 74.1314 78.0806 82.1482 86.3343 90.6389 95.0619 99.6034 104.263 109.042 113.939 118.954 124.088 129.34 134.711 140.2 145.808 151.534 157.378 163.342 169.423 175.623 181.941 188.378 194.934 201.608 208.4 215.311 222.34 229.488 236.754 244.138 251.642 259.263 
84.2996 80.1666 76.152 72.2558 68.4782 64.8189 61.2782 57.8559 54.5521 51.3668 48.2999 45.3514 42.5215 39.81 37.217 34.7424 32.3863 30.1486 28.0295 26.0288 24.1465 22.3827 20.7374 19.2105 17.8022 16.5122 15.3408 14.2878 13.3532 12.5372 11.8395 11.2604 10.7997 10.4575 10.2338 10.1285 10.1416 10.2733 10.5234 10.8919 11.379 11.9845 12.7084 13.5509 14.5117 15.5911 16.7889 18.1052 19.5399 21.0931 22.7648 24.5549 26.4635 28.4906 30.6361 32.9001 35.2826 37.7835 40.4029 43.1407 45.997 48.9718 52.065 55.2767 58.6069 62.0555 65.6226 69.3082 73.1122 77.0347 81.0756 85.2351 89.5129 93.9093 98.4241 103.057 107.809 112.679 117.668 122.775 128.001 133.345 138.807 144.388 150.088 155.906 161.842 167.897 174.07 180.362 186.772 193.301 199.948 206.714 213.598 220.6 227.721 234.961 242.319 249.795 257.39 
85.2448 81.0802 77.0341 73.1065 69.2974 65.6067 62.0345 58.5808 55.2455 52.0286 48.9303 45.9504 43.089 40.346 37.7215 35.2154 32.8279 30.5588 28.4081 26.3759 24.4622 22.667 20.9902 19.4318 17.992 16.6706 15.4676 14.3832 13.4172 12.5696 11.8405 11.2299 10.7378 10.3641 10.1088 9.97209 9.95379 10.054 10.2726 10.6097 11.0652 11.6393 12.3318 13.1427 14.0721 15.12 16.2863 17.5712 18.9744 20.4962 22.1364 23.895 25.7721 27.7677 29.8818 32.1143 34.4653 36.9347 39.5227 42.229 45.0539 47.9972 51.0589 54.2392 57.5379 60.955 64.4906 68.1447 71.9173 75.8083 79.8178 83.9457 88.1921 92.557 97.0403 101.642 106.362 111.201 116.158 121.234 126.428 131.741 137.172 142.721 148.389 154.176 160.081 166.104 172.246 178.506 184.885 191.382 197.998 204.732 211.584 218.555 225.645 232.853 240.18 247.624 255.188 
86.3642 82.1627 78.0797 74.1151 70.269 66.5414 62.9322 59.4415 56.0692 52.8155 49.6801 46.6633 43.7649 40.985 38.3235 35.7805 33.356 31.0499 28.8623 26.7932 24.8425 23.0103 21.2965 19.7012 18.2244 16.8661 15.6262 14.5047 13.5018 12.6173 11.8512 11.2037 10.6746 10.2639 9.97172 9.79801 9.74275 9.80596 9.98763 10.2878 10.7064 11.2434 11.899 12.673 13.5654 14.5763 15.7057 16.9536 18.3199 19.8047 21.4079 23.1296 24.9698 26.9284 29.0055 31.2011 33.5151 35.9476 38.4985 41.168 43.9558 46.8622 49.887 53.0303 56.292 59.6722 63.1709 66.788 70.5236 74.3776 78.3502 82.4411 86.6506 90.9785 95.4249 99.9897 104.673 109.475 114.395 119.434 124.591 129.866 135.261 140.773 146.404 152.154 158.022 164.008 170.113 176.336 182.678 189.138 195.717 202.414 209.23 216.164 223.217 230.388 237.677 245.085 252.611 
87.6852 83.4405 79.3143 75.3066 71.4173 67.6465 63.9941 60.4602 57.0448 53.7478 50.5693 47.5093 44.5677 41.7446 39.04 36.4538 33.9861 31.6369 29.4061 27.2938 25.2999 23.4245 21.6676 20.0291 18.5091 17.1076 15.8245 14.6599 13.6137 12.6861 11.8768 11.1861 10.6138 10.16 9.82461 9.60772 9.50928 9.52931 9.66781 9.92477 10.3002 10.7941 11.4064 12.1372 12.9865 13.9543 15.0405 16.2451 17.5683 19.0099 20.5699 22.2485 24.0454 25.9609 27.9948 30.1472 32.418 34.8073 37.3151 39.9414 42.6861 45.5492 48.5309 51.6309 54.8495 58.1865 61.642 65.216 68.9084 72.7192 76.6486 80.6964 84.8627 89.1474 93.5506 98.0723 102.712 107.471 112.348 117.344 122.458 127.69 133.041 138.51 144.098 149.804 155.629 161.572 167.634 173.814 180.113 186.53 193.065 199.719 206.492 213.383 220.392 227.52 234.766 242.131 249.615 
89.2366 84.9418 80.7655 76.7076 72.7682 68.9472 65.2447 61.6607 58.1952 54.8481 51.6194 48.5093 45.5176 42.6443 39.8896 37.2533 34.7354 32.336 30.0551 27.8927 25.8487 23.9232 22.1161 20.4275 18.8574 17.4057 16.0725 14.8578 13.7615 12.7837 11.9243 11.1834 10.561 10.0571 9.67157 9.40454 9.25598 9.22588 9.31424 9.52107 9.84636 10.2901 10.8523 11.533 12.3322 13.2498 14.2858 15.4404 16.7134 18.1049 19.6148 21.2432 22.99 24.8554 26.8392 28.9414 31.1621 33.5013 35.9589 38.535 41.2296 44.0426 46.9741 50.0241 53.1925 56.4794 59.8848 63.4086 67.0509 70.8116 74.6908 78.6885 82.8046 87.0392 91.3923 95.8638 100.454 105.162 109.989 114.935 119.998 125.181 130.482 135.901 141.438 147.095 152.869 158.762 164.774 170.904 177.152 183.519 190.005 196.609 203.331 210.172 217.131 224.209 231.405 238.72 246.153 
91.0475 86.6949 82.4608 78.3452 74.3481 70.4694 66.7091 63.0674 59.5441 56.1392 52.8528 49.6849 46.6355 43.7045 40.892 38.1979 35.6223 33.1652 30.8265 28.6063 26.5046 24.5213 22.6565 20.9102 19.2823 17.7729 16.3819 15.1094 13.9554 12.9198 12.0027 11.2041 10.5239 9.96223 9.51899 9.19421 8.9879 8.90005 8.93067 9.07974 9.34729 9.73329 10.2378 10.8607 11.6021 12.462 13.4403 14.5371 15.7523 17.086 18.5382 20.1089 21.798 23.6056 25.5316 27.5761 29.7391 32.0205 34.4204 36.9387 39.5756 42.3308 45.2046 48.1968 51.3075 54.5366 57.8842 61.3503 64.9348 68.6378 72.4593 76.3992 80.4576 84.6345 88.9298 93.3435 97.8758 102.527 107.296 112.183 117.189 122.314 127.557 132.918 138.398 143.997 149.714 155.549 161.503 167.575 173.766 180.075 186.503 193.049 199.714 206.497 213.398 220.418 227.557 234.813 242.189 
93.1445 88.726 84.4261 80.2446 76.1815 72.2369 68.4108 64.7032 61.114 57.6433 54.291 51.0572 47.9419 44.945 42.0666 39.3067 36.6652 34.1422 31.7377 29.4516 27.284 25.2348 23.3041 21.4919 19.7982 18.2229 16.766 15.4277 14.2077 13.1063 12.1233 11.2588 10.5128 9.88518 9.37606 8.9854 8.7132 8.55947 8.52421 8.60741 8.80907 9.12919 9.56778 10.1248 10.8004 11.5943 12.5068 13.5377 14.6871 15.9549 17.3412 18.846 20.4692 22.2109 24.0711 26.0497 28.1468 30.3623 32.6963 35.1488 37.7197 40.4091 43.217 46.1433 49.1881 52.3514 55.6331 59.0333 62.552 66.1891 69.9447 73.8187 77.8112 81.9222 86.1516 90.4995 94.9659 99.5507 104.254 109.076 114.016 119.075 124.252 129.547 134.962 140.494 146.145 151.915 157.802 163.809 169.934 176.177 182.539 189.019 195.618 202.335 209.171 216.125 223.197 230.388 237.698 
95.5476 91.0549 86.6807 82.425 78.2877 74.2688 70.3685 66.5866 62.9232 59.3782 55.9517 52.6437 49.4541 46.383 43.4303 40.5962 37.8805 35.2832 32.8044 30.4441 28.2022 26.0788 24.0739 22.1874 20.4194 18.7699 17.2388 15.8262 14.532 13.3564 12.2991 11.3604 10.5401 9.83826 9.2549 8.79 8.44356 8.21559 8.10608 8.11503 8.24245 8.48834 8.85268 9.33549 9.93677 10.6565 11.4947 12.4514 13.5265 14.7201 16.0322 17.4627 19.0117 20.6791 22.465 24.3694 26.3923 28.5336 30.7933 33.1716 35.6683 38.2834 41.017 43.8691 46.8397 49.9287 53.1362 56.4621 59.9065 63.4694 67.1508 70.9506 74.8688 78.9056 83.0607 87.3344 91.7265 96.2371 100.866 105.614 110.48 115.464 120.567 125.788 131.128 136.586 142.163 147.858 153.672 159.604 165.655 171.824 178.112 184.518 191.042 197.685 204.446 211.326 218.325 225.441 232.677 
98.264 93.6889 89.2323 84.8942 80.6745 76.5733 72.5906 68.7263 64.9805 61.3531 57.8443 54.4538 51.1819 48.0284 44.9934 42.0768 39.2787 36.5991 34.0379 31.5952 29.2709 27.0651 24.9778 23.009 21.1586 19.4267 17.8132 16.3182 14.9417 13.6836 12.544 11.5228 10.6202 9.83595 9.1702 8.62291 8.19409 7.88373 7.69184 7.61841 7.66344 7.82694 8.1089 8.50932 9.02821 9.66557 10.4214 11.2957 12.2884 13.3996 14.6293 15.9774 17.444 19.0291 20.7326 22.5546 24.4951 26.554 28.7314 31.0272 33.4415 35.9743 38.6256 41.3953 44.2834 47.2901 50.4152 53.6587 57.0207 60.5012 64.1002 67.8176 71.6535 75.6078 79.6806 83.8719 88.1816 92.6098 97.1565 101.822 106.605 111.507 116.528 121.667 126.924 132.3 137.795 143.407 149.139 154.988 160.957 167.043 173.248 179.572 186.014 192.575 199.254 206.051 212.967 220.002 227.154 
101.279 96.6144 92.0682 87.6404 83.3311 79.1403 75.0679 71.114 67.2785 63.5615 59.963 56.483 53.1214 49.8782 46.7536 43.7474 40.8596 38.0904 35.4396 32.9072 30.4933 28.1979 26.021 23.9625 22.0225 20.2009 18.4978 16.9132 15.447 14.0993 12.87 11.7593 10.767 9.89311 9.13772 8.5008 7.98234 7.58235 7.30082 7.13776 7.09315 7.16702 7.35934 7.67013 8.09939 8.6471 9.31329 10.0979 11.001 12.0226 13.1627 14.4212 15.7981 17.2936 18.9074 20.6398 22.4906 24.4599 26.5477 28.7539 31.0786 33.5217 36.0833 38.7634 41.5619 44.4789 47.5144 50.6683 53.9407 57.3315 60.8408 64.4686 68.2149 72.0796 76.0628 80.1644 84.3845 88.7231 93.1801 97.7556 102.45 107.262 112.193 117.242 122.41 127.696 133.101 138.624 144.266 150.026 155.905 161.902 168.017 174.251 180.604 187.075 193.664 200.372 207.198 214.143 221.206 
104.545 99.7852 95.1439 90.6211 86.2167 81.9308 77.7634 73.7144 69.7839 65.9718 62.2782 58.7031 55.2464 51.9082 48.6885 45.5872 42.6044 39.7401 36.9942 34.3668 31.8579 29.4674 27.1954 25.0418 23.0067 21.0901 19.2919 17.6122 16.051 14.6082 13.2839 12.0781 10.9907 10.0218 9.17132 8.43934 7.82581 7.33075 6.95416 6.69602 6.55636 6.53515 6.63241 6.84814 7.18232 7.63498 8.20609 8.89567 9.70371 10.6302 11.6752 12.8386 14.1205 15.5209 17.0397 18.677 20.4328 22.307 24.2997 26.4108 28.6404 30.9885 33.455 36.04 38.7435 41.5654 44.5058 47.5647 50.742 54.0378 57.4521 60.9848 64.6359 68.4056 72.2937 76.3003 80.4253 84.6688 89.0308 93.5112 98.1101 102.827 107.663 112.618 117.69 122.881 128.191 133.619 139.166 144.831 150.614 156.516 162.537 168.676 174.933 181.309 187.803 194.416 201.147 207.997 214.965 
107.967 103.11 98.3708 93.7504 89.2486 84.8652 80.6002 76.4537 72.4257 68.5162 64.7251 61.0525 57.4983 54.0626 50.7454 47.5466 44.4663 41.5044 38.6611 35.9362 33.3297 30.8417 28.4722 26.2211 24.0885 22.0744 20.1787 18.4015 16.7428 15.2025 13.7807 12.4774 11.2925 10.2261 9.27812 8.44863 7.7376 7.14504 6.67094 6.31531 6.07813 5.95943 5.95918 6.07741 6.31409 6.66924 7.14285 7.73493 8.44547 9.27448 10.2219 11.2879 12.4723 13.7751 15.1965 16.7362 18.3945 20.1712 22.0664 24.08 26.2121 28.4627 30.8318 33.3193 35.9252 38.6497 41.4925 44.4539 47.5337 50.732 54.0488 57.484 61.0376 64.7098 68.5004 72.4094 76.437 80.583 84.8474 89.2304 93.7317 98.3516 103.09 107.947 112.922 118.016 123.228 128.558 134.008 139.575 145.261 151.066 156.989 163.03 169.19 175.468 181.865 188.38 195.014 201.766 208.637 
111.391 106.438 101.603 96.8876 92.2901 87.8111 83.4506 79.2085 75.0849 71.0798 67.1931 63.4249 59.7751 56.2439 52.831 49.5367 46.3608 43.3034 40.3644 37.5439 34.8419 32.2583 29.7932 27.4466 25.2184 23.1087 21.1174 19.2446 17.4903 15.8544 14.337 12.9381 11.6576 10.4956 9.45211 8.52703 7.72042 7.03228 6.46259 6.01137 5.67862 5.46433 5.3685 5.39114 5.53224 5.7918 6.16983 6.66632 7.28128 8.0147 8.86658 9.83693 10.9257 12.133 13.4588 14.903 16.4656 18.1468 19.9464 21.8644 23.9009 26.0559 28.3294 30.7213 33.2317 35.8605 38.6078 41.4736 44.4578 47.5605 50.7817 54.1213 57.5794 61.156 64.851 68.6645 72.5964 76.6468 80.8157 85.103 89.5089 94.0331 98.6758 103.437 108.317 113.315 118.431 123.666 129.02 134.492 140.082 145.791 151.619 157.565 163.629 169.812 176.113 182.532 189.071 195.727 202.502 
114.597 109.556 104.634 99.8301 95.1447 90.5777 86.1292 81.7992 77.5876 73.4946 69.5199 65.6638 61.9261 58.3068 54.806 51.4237 48.1599 45.0145 41.9876 39.0791 36.2891 33.6176 31.0646 28.63 26.3138 24.1162 22.0369 20.0762 18.2339 16.5101 14.9048 13.4179 12.0495 10.7995 9.668 8.65497 7.7604 6.9843 6.32666 5.78748 5.36677 5.06452 4.88074 4.81542 4.86857 5.04018 5.33025 5.73878 6.26579 6.91125 7.67518 8.55757 9.55843 10.6777 11.9155 13.2718 14.7465 16.3397 18.0513 19.8814 21.83 23.897 26.0825 28.3865 30.8089 33.3498 36.0091 38.7869 41.6832 44.698 47.8312 51.0829 54.453 57.9416 61.5486 65.2742 69.1182 73.0806 77.1615 81.3609 85.6788 90.1151 94.6699 99.3431 104.135 109.045 114.074 119.221 124.486 129.87 135.373 140.994 146.733 152.591 158.567 164.662 170.875 177.207 183.657 190.226 196.913 
117.31 112.195 107.199 102.322 97.563 92.9224 88.4004 83.9968 79.7116 75.5449 71.4967 67.567 63.7557 60.0629 56.4885 53.0326 49.6952 46.4762 43.3757 40.3936 37.5301 34.785 32.1583 29.6501 27.2604 24.9891 22.8364 20.802 18.8862 17.0888 15.4098 13.8493 12.4073 11.0838 9.87871 8.79209 7.82393 6.97424 6.24302 5.63026 5.13596 4.76012 4.50275 4.36385 4.3434 4.44143 4.65791 4.99286 5.44627 6.01815 6.70849 7.5173 8.44457 9.4903 10.6545 11.9372 13.3383 14.8579 16.4959 18.2524 20.1274 22.1209 24.2328 26.4632 28.812 31.2793 33.8651 36.5693 39.392 42.3331 45.3928 48.5708 51.8674 55.2824 58.8159 62.4678 66.2382 70.1271 74.1344 78.2602 82.5045 86.8672 91.3484 95.948 100.666 105.503 110.458 115.531 120.723 126.034 131.463 137.01 142.676 148.46 154.363 160.384 166.524 172.782 179.158 185.654 192.267 
119.227 114.061 109.013 104.083 99.2719 94.5791 90.0048 85.549 81.2117 76.9928 72.8923 68.9104 65.0469 61.3018 57.6753 54.1672 50.7775 47.5064 44.3536 41.3194 38.4036 35.6063 32.9274 30.367 27.9251 25.6016 23.3966 21.3101 19.342 17.4924 15.7613 14.1486 12.6544 11.2786 10.0213 8.88249 7.86213 6.96023 6.17679 5.51182 4.96531 4.53727 4.22769 4.03658 3.96393 4.00974 4.17402 4.45676 4.85796 5.37763 6.01576 6.77236 7.64742 8.64094 9.75293 10.9834 12.3323 13.7997 15.3855 17.0898 18.9126 20.8538 22.9135 25.0917 27.3883 29.8034 32.337 34.989 37.7595 40.6484 43.6558 46.7817 50.0261 53.3889 56.8701 60.4699 64.1881 68.0247 71.9798 76.0534 80.2455 84.556 88.985 93.5324 98.1983 102.983 107.886 112.907 118.047 123.305 128.682 134.177 139.79 145.522 151.373 157.342 163.429 169.635 175.96 182.403 188.964 
120.081 114.89 109.817 104.863 100.027 95.3092 90.7102 86.2296 81.8676 77.6239 73.4988 69.4921 65.6039 61.8341 58.1828 54.65 51.2356 47.9397 44.7623 41.7033 38.7628 35.9407 33.2372 30.652 28.1854 25.8372 23.6075 21.4962 19.5034 17.6291 15.8732 14.2358 12.7168 11.3163 10.0343 8.87077 7.82568 6.89906 6.0909 5.4012 4.82997 4.3772 4.04289 3.82705 3.72967 3.75076 3.89031 4.14832 4.5248 5.01974 5.63315 6.36502 7.21535 8.18415 9.27141 10.4771 11.8013 13.244 14.8051 16.4847 18.2827 20.1992 22.2342 24.3876 26.6596 29.0499 31.5587 34.186 36.9318 39.796 42.7787 45.8799 49.0995 52.4375 55.8941 59.4691 63.1626 66.9745 70.9049 74.9537 79.1211 83.4069 87.8111 92.3338 96.975 101.735 106.613 111.609 116.724 121.958 127.31 132.78 138.369 144.077 149.902 155.847 161.909 168.091 174.39 180.808 187.345 
119.705 114.521 109.454 104.507 99.6773 94.9664 90.374 85.9 81.5446 77.3075 73.189 69.1889 65.3073 61.5441 57.8994 54.3732 50.9654 47.6761 44.5052 41.4529 38.5189 35.7035 33.0065 30.428 27.9679 25.6263 23.4032 21.2985 19.3123 17.4446 15.6953 14.0645 12.5521 11.1583 9.88284 8.72588 7.68739 6.76736 5.9658 5.2827 4.71806 4.27189 3.94418 3.73493 3.64415 3.67183 3.81798 4.08259 4.46566 4.9672 5.58721 6.32567 7.1826 8.158 9.25186 10.4642 11.795 13.2442 14.8119 16.4981 18.3027 20.2259 22.2674 24.4275 26.706 29.1029 31.6183 34.2522 37.0046 39.8754 42.8647 45.9724 49.1986 52.5433 56.0065 59.5881 63.2881 67.1066 71.0436 75.0991 79.273 83.5654 87.9763 92.5056 97.1533 101.92 106.804 111.807 116.929 122.169 127.528 133.005 138.6 144.314 150.147 156.098 162.167 168.355 174.661 181.086 187.629 
118.098 112.952 107.924 103.014 98.2235 93.551 88.997 84.5614 80.2443 76.0456 71.9654 68.0037 64.1605 60.4357 56.8293 53.3415 49.9721 46.7211 43.5887 40.5747 37.6791 34.902 32.2434 29.7033 27.2816 24.9784 22.7936 20.7273 18.7795 16.9501 15.2392 13.6467 12.1728 10.8173 9.58021 8.46162 7.4615 6.57984 5.81665 5.17192 4.64565 4.23785 3.94851 3.77764 3.72523 3.79128 3.9758 4.27878 4.70023 5.24014 5.89851 6.67535 7.57065 8.58442 9.71665 10.9673 12.3365 13.8241 15.4302 17.1548 18.9978 20.9592 23.0392 25.2376 27.5545 29.9898 32.5436 35.2159 38.0066 40.9158 43.9434 47.0895 50.3541 53.7372 57.2387 60.8586 64.5971 68.454 72.4293 76.5232 80.7355 85.0662 89.5154 94.0831 98.7693 103.574 108.497 113.539 118.699 123.977 129.374 134.889 140.523 146.275 152.146 158.136 164.243 170.469 176.814 183.277 189.859 
115.441 110.362 105.401 100.558 95.8337 91.228 86.7406 82.3718 78.1214 73.9895 69.976 66.081 62.3045 58.6465 55.1069 51.6857 48.383 45.1988 42.1331 39.1858 36.357 33.6466 31.0548 28.5813 26.2264 23.9899 21.8718 19.8723 17.9912 16.2285 14.5844 13.0586 11.6514 10.3626 9.19228 8.14043 7.20703 6.3921 5.69564 5.11764 4.6581 4.31703 4.09442 3.99027 4.00459 4.13737 4.38862 4.75833 5.24651 5.85314 6.57825 7.42181 8.38384 9.46434 10.6633 11.9807 13.4166 14.971 16.6438 18.435 20.3448 22.373 24.5197 26.7848 29.1684 31.6705 34.291 37.03 39.8874 42.8633 45.9577 49.1706 52.5019 55.9517 59.5199 63.2066 67.0118 70.9354 74.9775 79.138 83.4171 87.8145 92.3305 96.9649 101.718 106.589 111.579 116.687 121.914 127.259 132.723 138.305 144.005 149.825 155.762 161.818 167.992 174.285 180.697 187.227 193.875 
112.071 107.08 102.207 97.4523 92.8162 88.2985 83.8993 79.6186 75.4563 71.4125 67.4872 63.6804 59.9919 56.422 52.9705 49.6375 46.423 43.3269 40.3493 37.4901 34.7494 32.1272 29.6234 27.2381 24.9713 22.8229 20.793 18.8816 17.0886 15.4141 13.858 12.4205 11.1013 9.90067 8.81847 7.85474 7.00947 6.28267 5.67433 5.18445 4.81304 4.56009 4.42561 4.40959 4.51203 4.73294 5.07231 5.53015 6.10645 6.80121 7.61444 8.54613 9.59629 10.7649 12.052 13.4575 14.9815 16.624 18.385 20.2644 22.2622 24.3786 26.6134 28.9666 31.4383 34.0285 36.7372 39.5643 42.5099 45.5739 48.7564 52.0574 55.4768 59.0147 62.6711 66.4459 70.3392 74.351 78.4812 82.7299 87.097 91.5826 96.1867 100.909 105.75 110.71 115.788 120.984 126.299 131.732 137.284 142.954 148.743 154.65 160.676 166.82 173.082 179.463 185.963 192.581 199.317 
108.411 103.519 98.7459 94.0914 89.5552 85.1376 80.8384 76.6576 72.5954 68.6516 64.8262 61.1193 57.5309 54.061 50.7095 47.4765 44.3619 41.3658 38.4882 35.729 33.0883 30.5661 28.1623 25.877 23.7102 21.6618 19.7319 17.9204 16.2274 14.6529 13.1968 11.8592 10.6401 9.53944 8.55723 7.69349 6.94821 6.3214 5.81305 5.42316 5.15174 4.99878 4.96429 5.04826 5.25069 5.57159 6.01095 6.56878 7.24507 8.03982 8.95304 9.98472 11.1349 12.4035 13.7905 15.2961 16.9201 18.6626 20.5235 22.5029 24.6007 26.8171 29.1518 31.6051 34.1768 36.867 39.6756 42.6027 45.6483 48.8123 52.0948 55.4958 59.0152 62.6531 66.4094 70.2843 74.2775 78.3893 82.6195 86.9682 91.4353 96.0209 100.725 105.547 110.488 115.548 120.726 126.022 131.437 136.97 142.622 148.392 154.281 160.288 166.414 172.658 179.021 185.502 192.101 198.819 205.655 
104.891 100.101 95.4287 90.8751 86.44 82.1233 77.9251 73.8454 69.8841 66.0413 62.317 58.7111 55.2237 51.8548 48.6043 45.4723 42.4587 39.5636 36.787 34.1289 31.5892 29.1679 26.8652 24.6809 22.615 20.6677 18.8388 17.1283 15.5363 14.0628 12.7077 11.4712 10.353 9.35337 8.47217 7.70943 7.06516 6.53935 6.13201 5.84313 5.67272 5.62077 5.68728 5.87226 6.1757 6.5976 7.13797 7.7968 8.5741 9.46986 10.4841 11.6168 12.8679 14.2375 15.7256 17.3322 19.0572 20.9006 22.8626 24.943 27.1418 29.4592 31.895 34.4492 37.1219 39.9131 42.8228 45.8509 48.9975 52.2625 55.646 59.148 62.7684 66.5073 70.3647 74.3405 78.4348 82.6475 86.9787 91.4284 95.9966 100.683 105.488 110.412 115.454 120.614 125.893 131.291 136.806 142.441 148.193 154.065 160.054 166.163 172.389 178.734 185.198 191.78 198.48 205.299 212.237 
101.895 97.1951 92.6142 88.1517 83.8077 79.5821 75.475 71.4864 67.6163 63.8646 60.2313 56.7166 53.3203 50.0424 46.883 43.8421 40.9197 38.1157 35.4302 32.8631 30.4145 28.0844 25.8727 23.7795 21.8048 19.9485 18.2107 16.5914 15.0905 13.7081 12.4441 11.2986 10.2716 9.36303 8.57294 7.9013 7.34813 6.91343 6.59719 6.39941 6.32009 6.35924 6.51686 6.79294 7.18748 7.70048 8.33195 9.08189 9.95029 10.9371 12.0425 13.2663 14.6085 16.0692 17.6484 19.3461 21.1622 23.0967 25.1498 27.3213 29.6112 32.0197 34.5466 37.1919 39.9557 42.838 45.8388 48.958 52.1957 55.5518 59.0264 62.6195 66.331 70.161 74.1095 78.1764 82.3618 86.6656 91.088 95.6287 100.288 105.066 109.962 114.976 120.11 125.361 130.731 136.22 141.827 147.552 153.396 159.358 165.439 171.638 177.956 184.392 190.947 197.62 204.412 211.322 218.35 
99.7152 95.087 90.5774 86.1862 81.9135 77.7592 73.7234 69.8061 66.0072 62.3268 58.7648 55.3214 51.9964 48.7898 45.7017 42.7321 39.8809 37.1482 34.534 32.0382 29.6609 27.4021 25.2617 23.2398 21.3364 19.5514 17.8849 16.3368 14.9072 13.5961 12.4034 11.3292 10.3735 9.53621 8.8174 8.21706 7.73518 7.37176 7.12681 7.00032 6.9923 7.10274 7.33164 7.67901 8.14484 8.72913 9.43189 10.2531 11.1928 12.251 13.4276 14.7226 16.1362 17.6682 19.3187 21.0876 22.975 24.9809 27.1052 29.348 31.7092 34.189 36.7871 39.5038 42.3389 45.2925 48.3645 51.555 54.864 58.2914 61.8373 65.5017 69.2845 73.1858 77.2055 81.3437 85.6004 89.9756 94.4692 99.0812 103.812 108.661 113.628 118.714 123.919 129.241 134.683 140.242 145.921 151.717 157.633 163.666 169.818 176.089 182.478 188.985 195.611 202.356 209.219 216.2 223.3 
98.5511 93.9665 89.5004 85.1527 80.9235 76.8127 72.8205 68.9466 65.1913 61.5544 58.036 54.636 51.3545 48.1915 45.1469 42.2208 39.4132 36.724 34.1533 31.701 29.3673 27.1519 25.0551 23.0767 21.2168 19.4753 17.8523 16.3478 14.9617 13.6941 12.5449 11.5142 10.602 9.80827 9.13298 8.57616 8.1378 7.8179 7.61647 7.5335 7.56899 7.72295 7.99537 8.38626 8.89561 9.52342 10.2697 11.1344 12.1176 13.2193 14.4395 15.778 17.2351 18.8106 20.5046 22.3171 24.248 26.2974 28.4652 30.7515 33.1563 35.6795 38.3212 41.0814 43.96 46.9571 50.0727 53.3067 56.6592 60.1301 63.7196 67.4274 71.2538 75.1986 79.2618 83.4436 87.7438 92.1624 96.6996 101.355 106.129 111.022 116.033 121.162 126.41 131.776 137.261 142.865 148.586 154.427 160.385 166.462 172.658 178.972 185.405 191.956 198.625 205.413 212.319 219.344 226.488 
98.5113 93.9371 89.4815 85.1443 80.9255 76.8252 72.8434 68.98 65.2351 61.6087 58.1007 54.7112 51.4402 48.2876 45.2535 42.3378 39.5406 36.8619 34.3017 31.8599 29.5365 27.3317 25.2453 23.2773 21.4279 19.6969 18.0843 16.5902 15.2146 13.9575 12.8188 11.7985 10.8968 10.1135 9.44864 8.90227 8.47437 8.16492 7.97395 7.90143 7.94738 8.11179 8.39467 8.79601 9.31582 9.95409 10.7108 11.586 12.5797 13.6918 14.9224 16.2714 17.739 19.3249 21.0294 22.8523 24.7937 26.8535 29.0318 31.3286 33.7438 36.2775 38.9296 41.7003 44.5893 47.5969 50.7229 53.9674 57.3303 60.8117 64.4116 68.1299 71.9667 75.922 79.9957 84.1879 88.4985 92.9277 97.4752 102.141 106.926 111.829 116.85 121.99 127.248 132.625 138.121 143.734 149.467 155.317 161.286 167.374 173.58 179.905 186.348 192.909 199.589 206.387 213.304 220.34 227.493 
99.6331 95.0341 90.5535 86.1914 81.9478 77.8227 73.816 69.9277 66.1579 62.5066 58.9738 55.5594 52.2635 49.086 46.027 43.0865 40.2645 37.5609 34.9757 32.5091 30.1609 27.9311 25.8198 23.827 21.9527 20.1968 18.5594 17.0404 15.6399 14.3579 13.1943 12.1492 11.2226 10.4144 9.72468 9.15344 8.70066 8.36634 8.15048 8.05309 8.07416 8.2137 8.4717 8.84817 9.3431 9.95649 10.6883 11.5387 12.5075 13.5947 14.8004 16.1246 17.5672 19.1283 20.8079 22.6059 24.5224 26.5574 28.7108 30.9827 33.3731 35.8819 38.5092 41.2549 44.1191 47.1018 50.2029 53.4225 56.7606 60.2171 63.7921 67.4856 71.2975 75.2279 79.2767 83.444 87.7298 92.134 96.6567 101.298 106.058 110.936 115.932 121.047 126.281 131.633 137.103 142.692 148.399 154.225 160.169 166.232 172.413 178.713 185.131 191.668 198.323 205.096 211.988 218.999 226.128 
101.904 97.245 92.7048 88.2831 83.9799 79.7951 75.7288 71.7809 67.9515 64.2406 60.6481 57.1741 53.8186 50.5815 47.4629 44.4628 41.5811 38.8179 36.1731 33.6468 31.239 28.9497 26.7788 24.7263 22.7924 20.9769 19.2798 17.7013 16.2411 14.8995 13.6763 12.5716 11.5853 10.7176 9.96822 9.33736 8.82496 8.43102 8.15555 7.99855 7.96 8.03992 8.23831 8.55515 8.99047 9.54424 10.2165 11.0072 11.9164 12.944 14.0901 15.3546 16.7377 18.2392 19.8591 21.5975 23.4544 25.4297 27.5236 29.7358 32.0666 34.5158 37.0834 39.7695 42.5741 45.4972 48.5387 51.6987 54.9771 58.3741 61.8894 65.5233 69.2756 73.1463 77.1356 81.2433 85.4694 89.814 94.2771 98.8587 103.559 108.377 113.314 118.37 123.543 128.836 134.247 139.776 145.424 151.19 157.074 163.077 169.199 175.439 181.798 188.275 194.87 201.584 208.416 215.367 222.436 
105.281 100.53 95.8986 91.3853 86.9904 82.7139 78.556 74.5165 70.5955 66.7929 63.1088 59.5432 56.096 52.7673 49.5571 46.4653 43.492 40.6371 37.9007 35.2828 32.7833 30.4023 28.1398 25.9957 23.9701 22.063 20.2743 18.6041 17.0524 15.6191 14.3043 13.1079 12.03 11.0706 10.2296 9.50713 8.90309 8.41752 8.05041 7.80177 7.67159 7.65987 7.76662 7.99183 8.3355 8.79764 9.37825 10.0773 10.8948 11.8308 12.8853 14.0582 15.3496 16.7595 18.2878 19.9346 21.6998 23.5835 25.5857 27.7063 29.9454 32.303 34.779 37.3735 40.0864 42.9179 45.8677 48.9361 52.1229 55.4282 58.8519 62.3941 66.0548 69.8339 73.7315 77.7476 81.8821 86.1351 90.5065 94.9964 99.6048 104.332 109.177 114.141 119.223 124.424 129.743 135.18 140.737 146.411 152.204 158.116 164.146 170.294 176.561 182.946 189.45 196.072 202.813 209.672 216.65 
109.712 104.842 100.09 95.4569 90.9422 86.5459 82.2681 78.1087 74.0678 70.1454 66.3415 62.656 59.089 55.6404 52.3103 49.0987 46.0055 43.0308 40.1745 37.4367 34.8174 32.3166 29.9342 27.6703 25.5248 23.4978 21.5893 19.7992 18.1276 16.5745 15.1398 13.8236 12.6258 11.5465 10.5857 9.74336 9.01947 8.41404 7.92707 7.55857 7.30853 7.17696 7.16385 7.26921 7.49303 7.83531 8.29605 8.87527 9.57294 10.3891 11.3237 12.3767 13.5483 14.8383 16.2467 17.7737 19.419 21.1829 23.0652 25.066 27.1852 29.4229 31.7791 34.2537 36.8468 39.5584 42.3884 45.3369 48.4039 51.5893 54.8932 58.3155 61.8563 65.5156 69.2933 73.1895 77.2042 81.3373 85.5889 89.959 94.4475 99.0545 103.78 108.624 113.586 118.667 123.866 129.184 134.62 140.175 145.848 151.64 157.55 163.578 169.725 175.991 182.375 188.877 195.498 202.238 209.095 
115.148 110.134 105.238 100.46 95.8016 91.2612 86.8393 82.5358 78.3508 74.2842 70.3361 66.5065 62.7953 59.2027 55.7284 52.3727 49.1354 46.0165 43.0161 40.1342 37.3708 34.7258 32.1993 29.7912 27.5016 25.3305 23.2778 21.3436 19.5279 17.8306 16.2518 14.7915 13.4496 12.2262 11.1212 10.1348 9.26673 8.51717 7.88607 7.37344 6.97928 6.70357 6.54633 6.50756 6.58724 6.7854 7.10201 7.53709 8.09064 8.76264 9.55312 10.4621 11.4895 12.6353 13.8996 15.2824 16.7837 18.4034 20.1416 21.9982 23.9734 26.0669 28.279 30.6095 33.0584 35.6259 38.3118 41.1161 44.0389 47.0802 50.24 53.5182 56.9149 60.43 64.0636 67.8157 71.6862 75.6752 79.7827 84.0086 88.353 92.8159 97.3972 102.097 106.915 111.852 116.907 122.081 127.373 132.783 138.312 143.96 149.726 155.61 161.613 167.735 173.974 180.333 186.809 193.405 200.118 
121.542 116.363 111.303 106.361 101.537 96.8319 92.2453 87.7772 83.4275 79.1962 75.0835 71.0892 67.2133 63.456 59.817 56.2966 52.8946 49.6111 46.446 43.3995 40.4713 37.6617 34.9705 32.3977 29.9435 27.6077 25.3903 23.2914 21.311 19.4491 17.7056 16.0806 14.574 13.1859 11.9163 10.7651 9.73241 8.81817 8.02239 7.34508 6.78624 6.34585 6.02393 5.82048 5.73549 5.76896 5.9209 6.1913 6.58016 7.08749 7.71328 8.45754 9.32026 10.3014 11.4011 12.6192 13.9558 15.4108 16.9843 18.6763 20.4867 22.4156 24.463 26.6288 28.9131 31.3158 33.8371 36.4767 39.2349 42.1115 45.1066 48.2201 51.4521 54.8026 58.2715 61.8589 65.5647 69.389 73.3318 77.3931 81.5728 85.871 90.2876 94.8227 99.4763 104.248 109.139 114.148 119.275 124.521 129.885 135.368 140.97 146.689 152.527 158.484 164.559 170.753 177.065 183.495 190.044 
128.83 123.47 118.228 113.104 108.1 103.213 98.4451 93.7956 89.2645 84.852 80.5578 76.3822 72.325 68.3863 64.566 60.8642 57.2809 53.816 50.4696 47.2416 44.1322 41.1411 38.2686 35.5145 32.8789 30.3617 27.963 25.6828 23.521 21.4777 19.5529 17.7465 16.0586 14.4891 13.0381 11.7056 10.4915 9.39595 8.41882 7.56016 6.81995 6.19822 5.69494 5.31013 5.04378 4.8959 4.86648 4.95553 5.16304 5.48901 5.93345 6.49635 7.17771 7.97754 8.89584 9.93259 11.0878 12.3615 13.7536 15.2643 16.8933 18.6409 20.5069 22.4914 24.5943 26.8157 29.1555 31.6139 34.1907 36.8859 39.6996 42.6318 45.6824 48.8516 52.1391 55.5452 59.0697 62.7126 66.4741 70.3539 74.3523 78.4691 82.7044 87.0582 91.5304 96.121 100.83 105.658 110.604 115.668 120.851 126.153 131.573 137.111 142.768 148.543 154.437 160.449 166.58 172.829 179.197 
136.886 131.332 125.897 120.581 115.383 110.303 105.342 100.5 95.7758 91.1701 86.683 82.3142 78.064 73.9322 69.9189 66.024 62.2476 58.5897 55.0502 51.6292 48.3267 45.1426 42.077 39.1298 36.3011 33.5909 30.9992 28.5259 26.171 23.9347 21.8168 19.8173 17.9364 16.1739 14.5298 13.0042 11.5971 10.3085 9.13827 8.08654 7.15328 6.33848 5.64215 5.06428 4.60487 4.26393 4.04145 3.93744 3.95189 4.0848 4.33618 4.70602 5.19433 5.8011 6.52633 7.37003 8.33219 9.41282 10.6119 11.9295 13.3655 14.92 16.5929 18.3843 20.2942 22.3225 24.4693 26.7346 29.1183 31.6205 34.2412 36.9803 39.8379 42.8139 45.9084 49.1214 52.4528 55.9028 59.4711 63.158 66.9633 70.887 74.9292 79.0899 83.3691 87.7667 92.2828 96.9173 101.67 106.542 111.532 116.64 121.867 127.212 132.676 138.258 143.959 149.778 155.716 161.772 167.947 
145.46 139.709 134.077 128.563 123.167 117.89 112.732 107.692 102.77 97.9667 93.282 88.7157 84.2679 79.9386 75.7277 71.6353 67.6614 63.8059 60.0689 56.4504 52.9503 49.5686 46.3055 43.1608 40.1346 37.2268 34.4375 31.7667 29.2143 26.7804 24.4649 22.268 20.1894 18.2294 16.3878 14.6647 13.06 11.5738 10.2061 8.95682 7.82602 6.81368 5.9198 5.14438 4.48744 3.94895 3.52893 3.22737 3.04428 2.97965 3.03348 3.20578 3.49654 3.90577 4.43346 5.07961 5.84423 6.72731 7.72886 8.84887 10.0873 11.4443 12.9197 14.5135 16.2259 18.0567 20.0059 22.0737 24.2598 26.5645 28.9876 31.5292 34.1892 36.9677 39.8647 42.8801 46.014 49.2664 52.6372 56.1265 59.7343 63.4605 67.3052 71.2683 75.3499 79.55 83.8685 88.3055 92.861 97.5349 102.327 107.238 112.267 117.415 122.682 128.066 133.569 139.191 144.931 150.79 156.767 
154.114 148.172 142.348 136.642 131.055 125.586 120.236 115.004 109.891 104.896 100.02 95.2621 90.6227 86.1018 81.6993 77.4153 73.2498 69.2027 65.2741 61.4639 57.7722 54.199 50.7442 47.4079 44.1901 41.0907 38.1098 35.2473 32.5034 29.8778 27.3708 24.9822 22.7121 20.5604 18.5272 16.6125 14.8162 13.1384 11.5791 10.1382 8.81577 7.61182 6.52633 5.55931 4.71075 3.98065 3.36902 2.87586 2.50115 2.24492 2.10714 2.08783 2.18698 2.4046 2.74068 3.19523 3.76824 4.45971 5.26965 6.19805 7.24491 8.41024 9.69403 11.0963 12.617 14.2562 16.0138 17.89 19.8845 21.9976 24.2291 26.579 29.0475 31.6344 34.3397 37.1636 40.1058 43.1666 46.3458 49.6435 53.0596 56.5942 60.2473 64.0189 67.9089 71.9173 76.0442 80.2896 84.6535 89.1358 93.7366 98.4558 103.294 108.25 113.324 118.517 123.829 129.259 134.808 140.475 146.26 
162.168 156.053 150.058 144.18 138.422 132.781 127.259 121.856 116.571 111.404 106.356 101.427 96.6156 91.9229 87.3488 82.893 78.5558 74.337 70.2366 66.2548 62.3914 58.6464 55.02 51.5119 48.1224 44.8513 41.6987 38.6645 35.7488 32.9516 30.2728 27.7125 25.2707 22.9473 20.7424 18.656 16.688 14.8385 13.1074 11.4948 10.0007 8.62504 7.36785 6.22911 5.20884 4.30704 3.52369 2.85882 2.3124 1.88445 1.57497 1.38394 1.31139 1.35729 1.52166 1.80449 2.20579 2.72555 3.36378 4.12047 4.99562 5.98924 7.10132 8.33187 9.68088 11.1483 12.7343 14.4387 16.2616 18.2029 20.2627 22.4409 24.7377 27.1528 29.6865 32.3386 35.1092 37.9982 41.0057 44.1317 47.3761 50.739 54.2204 57.8202 61.5385 65.3752 69.3305 73.4041 77.5963 81.9069 86.336 90.8835 95.5495 100.334 105.237 110.258 115.398 120.656 126.033 131.528 137.142 
168.701 162.451 156.321 150.308 144.415 138.639 132.982 127.444 122.024 116.723 111.539 106.475 101.529 96.7011 91.992 87.4012 82.929 78.5752 74.3399 70.223 66.2246 62.3447 58.5832 54.9402 51.4157 48.0096 44.722 41.5528 38.5022 35.5699 32.7562 30.0609 27.4841 25.0257 22.6858 20.4644 18.3614 16.3769 14.5108 12.7633 11.1341 9.62348 8.23129 6.95757 5.80231 4.76551 3.84718 3.04731 2.3659 1.80296 1.35848 1.03247 0.824918 0.735833 0.765211 0.913053 1.17936 1.56413 2.06736 2.68906 3.42922 4.28785 5.26494 6.36049 7.57451 8.90699 10.3579 11.9273 13.6152 15.4216 17.3464 19.3896 21.5514 23.8315 26.2302 28.7473 31.3829 34.137 37.0095 40.0005 43.1099 46.3378 49.6842 53.149 56.7323 60.4341 64.2543 68.193 72.2501 76.4257 80.7198 85.1324 89.6634 94.3128 99.0808 103.967 108.972 114.095 119.337 124.697 130.176 
172.661 166.331 160.12 154.027 148.053 142.196 136.459 130.84 125.339 119.957 114.693 109.548 104.521 99.6126 94.8227 90.1513 85.5984 81.1639 76.8478 72.6503 68.5712 64.6105 60.7683 57.0446 53.4394 49.9526 46.5843 43.3344 40.203 37.1901 34.2956 31.5196 28.8621 26.323 23.9024 21.6002 19.4166 17.3513 15.4046 13.5763 11.8665 10.2751 8.8022 7.44777 6.2118 5.09429 4.09525 3.21467 2.45255 1.8089 1.28371 0.876991 0.588732 0.418936 0.367605 0.434738 0.620334 0.924395 1.34692 1.88791 2.54736 3.32528 4.22166 5.2365 6.36981 7.62158 8.99182 10.4805 12.0877 13.8133 15.6574 17.62 19.701 21.9005 24.2184 26.6548 29.2097 31.883 34.6748 37.5851 40.6138 43.761 47.0267 50.4108 53.9134 57.5345 61.274 65.1319 69.1084 73.2033 77.4167 81.7485 86.1988 90.7676 95.4548 100.26 105.185 110.227 115.388 120.668 126.066 
173.105 166.764 160.541 154.436 148.45 142.582 136.833 131.202 125.69 120.296 115.021 109.864 104.826 99.9056 95.1042 90.4211 85.8566 81.4105 77.0828 72.8737 68.783 64.8107 60.957 57.2216 53.6048 50.1064 46.7265 43.465 40.322 37.2975 34.3914 31.6038 28.9347 26.384 23.9518 21.6381 19.4428 17.366 15.4076 13.5677 11.8463 10.2433 8.75885 7.39281 6.14524 5.01614 4.0055 3.11332 2.33961 1.68436 1.14757 0.729247 0.429389 0.247995 0.185065 0.240599 0.414596 0.707058 1.11798 1.64737 2.29523 3.06154 3.94633 4.94957 6.07128 7.31145 8.67009 10.1472 11.7428 13.4568 15.2893 17.2402 19.3097 21.4975 23.8039 26.2287 28.772 31.4337 34.2139 37.1126 40.1297 43.2653 46.5194 49.8919 53.3829 56.9924 60.7203 64.5666 68.5315 72.6148 76.8166 81.1368 85.5755 90.1327 94.8083 99.6024 104.515 109.546 114.695 119.963 125.35 
169.509 163.233 157.076 151.037 145.117 139.315 133.632 128.067 122.62 117.292 112.083 106.992 102.019 97.1649 92.4292 87.812 83.3133 78.933 74.6712 70.5278 66.503 62.5965 58.8086 55.1391 51.5881 48.1555 44.8414 41.6457 38.5686 35.6099 32.7696 30.0478 27.4445 24.9597 22.5933 20.3453 18.2159 16.2049 14.3124 12.5383 10.8827 9.34553 7.92685 6.62664 5.44489 4.3816 3.43678 2.61042 1.90252 1.31309 0.842124 0.48962 0.255581 0.140006 0.142894 0.264247 0.504063 0.862344 1.33909 1.9343 2.64797 3.48011 4.43071 5.49977 6.6873 7.99329 9.41775 10.9607 12.6221 14.4019 16.3002 18.317 20.4522 22.7059 25.0781 27.5687 30.1778 32.9054 35.7514 38.7159 41.7988 45.0003 48.3201 51.7585 55.3153 58.9906 62.7843 66.6965 70.7272 74.8763 79.1439 83.5299 88.0345 92.6574 97.3989 102.259 107.237 112.334 117.549 122.883 128.335 
162.002 155.869 149.854 143.958 138.181 132.521 126.98 121.558 116.254 111.069 106.002 101.053 96.2234 91.5118 86.9188 82.4441 78.088 73.8503 69.731 65.7302 61.8479 58.0841 54.4387 50.9118 47.5033 44.2134 41.0418 37.9888 35.0542 32.238 29.5404 26.9612 24.5004 22.1581 19.9343 17.829 15.8421 13.9737 12.2237 10.5922 9.07919 7.68462 6.40852 5.25088 4.21171 3.291 2.48875 1.80497 1.23965 0.792797 0.464406 0.25448 0.163017 0.190019 0.335484 0.599414 0.981807 1.48266 2.10199 2.83977 3.69602 4.67073 5.76391 6.97555 8.30566 9.75422 11.3213 13.0068 14.8107 16.7331 18.774 20.9334 23.2112 25.6075 28.1222 30.7554 33.5071 36.3772 39.3658 42.4729 45.6984 49.0424 52.5049 56.0858 59.7852 63.603 67.5393 71.5941 75.7674 80.0591 84.4692 88.9979 93.645 98.4105 103.295 108.297 113.418 118.657 124.015 129.492 135.086 
151.38 145.457 139.652 133.965 128.397 122.948 117.616 112.404 107.31 102.334 97.4765 92.7377 88.1173 83.6154 79.232 74.967 70.8205 66.7924 62.8829 59.0918 55.4191 51.8649 48.4292 45.1119 41.9131 38.8328 35.8709 33.0275 30.3026 27.6961 25.2081 22.8386 20.5875 18.4549 16.4407 14.545 12.7678 11.109 9.56873 8.14689 6.84352 5.65861 4.59217 3.64419 2.81467 2.10362 1.51103 1.03691 0.681247 0.444051 0.325319 0.32505 0.443246 0.679906 1.03503 1.50862 2.10067 2.81118 3.64016 4.58761 5.65351 6.83789 8.14072 9.56202 11.1018 12.76 14.5367 16.4319 18.4455 20.5776 22.8281 25.1971 27.6846 30.2905 33.0149 35.8578 38.8191 41.8989 45.0972 48.4139 51.8491 55.4027 59.0749 62.8654 66.7745 70.802 74.948 79.2124 83.5953 88.0966 92.7165 97.4548 102.312 107.287 112.38 117.593 122.923 128.372 133.94 139.626 145.43 
138.892 133.229 127.684 122.257 116.949 111.76 106.689 101.736 96.9019 92.1862 87.5889 83.1101 78.7498 74.5079 70.3845 66.3796 62.4931 58.7251 55.0756 51.5445 48.1319 44.8377 41.6621 38.6048 35.6661 32.8458 30.144 27.5606 25.0957 22.7492 20.5213 18.4118 16.4207 14.5481 12.794 11.1584 9.64117 8.24244 6.96218 5.80038 4.75705 3.83218 3.02577 2.33783 1.76835 1.31733 0.984781 0.770694 0.675071 0.697912 0.839217 1.09899 1.47722 1.97392 2.58908 3.3227 4.17479 5.14534 6.23436 7.44184 8.76778 10.2122 11.7751 13.4564 15.2562 17.1745 19.2112 21.3664 23.64 26.0322 28.5427 31.1718 33.9193 36.7853 39.7697 42.8726 46.094 49.4338 52.8921 56.4689 60.1641 63.9778 67.9099 71.9606 76.1296 80.4172 84.8232 89.3477 93.9906 98.752 103.632 108.63 113.747 118.982 124.336 129.808 135.399 141.108 146.935 152.881 158.946 
125.93 120.556 115.301 110.164 105.145 100.245 95.4639 90.8008 86.2561 81.8299 77.5222 73.3329 69.2621 65.3098 61.4759 57.7605 54.1636 50.6851 47.3251 44.0836 40.9605 37.9559 35.0697 32.302 29.6528 27.122 24.7097 22.4159 20.2405 18.1836 16.2452 14.4252 12.7237 11.1406 9.67603 8.3299 7.10224 5.99305 5.00232 4.13005 3.37624 2.7409 2.22403 1.82561 1.54566 1.38418 1.34116 1.4166 1.61051 1.92288 2.35371 2.90301 3.57078 4.357 5.26169 6.28485 7.42647 8.68655 10.0651 11.5621 13.1776 14.9115 16.7639 18.7348 20.8241 23.0319 25.3582 27.8029 30.3661 33.0477 35.8478 38.7664 41.8035 44.959 48.2329 51.6254 55.1363 58.7656 62.5135 66.3798 70.3645 74.4677 78.6894 83.0295 87.4882 92.0652 96.7608 101.575 106.507 111.558 116.728 122.015 127.422 132.947 138.59 144.351 150.232 156.23 162.347 168.583 174.937 
113.741 108.664 103.705 98.865 94.1432 89.5398 85.0549 80.6885 76.4405 72.3111 68.3 64.4075 60.6334 56.9777 53.4405 50.0218 46.7216 43.5398 40.4765 37.5316 34.7052 31.9973 29.4079 26.9369 24.5843 22.3503 20.2347 18.2375 16.3588 14.5986 12.9569 11.4336 10.0288 8.7424 7.5745 6.52507 5.5941 4.7816 4.08756 3.51199 3.05488 2.71623 2.49605 2.39433 2.41107 2.54628 2.79995 3.17209 3.66269 4.27176 4.99929 5.84528 6.80973 7.89266 9.09404 10.4139 11.8522 13.409 15.0842 16.8779 18.7901 20.8207 22.9698 25.2374 27.6234 30.1279 32.7508 35.4923 38.3521 41.3305 44.4273 47.6426 50.9763 54.4285 57.9992 61.6883 65.4959 69.4219 73.4665 77.6294 81.9109 86.3108 90.8292 95.466 100.221 105.095 110.087 115.198 120.427 125.775 131.241 136.825 142.528 148.35 154.29 160.348 166.525 172.82 179.234 185.767 192.417 
103.232 98.4374 93.7611 89.2033 84.7639 80.443 76.2406 72.1566 68.1912 64.3441 60.6156 57.0055 53.5138 50.1406 46.8859 43.7497 40.7319 37.8326 35.0517 32.3893 29.8454 27.42 25.113 22.9244 20.8543 18.9027 17.0696 15.3549 13.7587 12.281 10.9217 9.68084 8.55848 7.55459 6.66916 5.90219 5.25369 4.72365 4.31207 4.01896 3.84431 3.78813 3.85041 4.03116 4.33036 4.74804 5.28417 5.93877 6.71184 7.60336 8.61336 9.74181 10.9887 12.3541 13.838 15.4403 17.1611 19.0003 20.958 23.0342 25.2288 27.5419 29.9734 32.5235 35.192 37.9789 40.8843 43.9082 47.0505 50.3114 53.6906 57.1884 60.8046 64.5392 68.3924 72.3639 76.454 80.6625 84.9895 89.4349 93.9989 98.6812 103.482 108.401 113.439 118.595 123.87 129.263 134.775 140.405 146.153 152.02 158.006 164.11 170.332 176.673 183.133 189.71 196.407 203.221 210.154 
94.8837 90.3389 85.9126 81.6048 77.4154 73.3445 69.3921 65.5581 61.8426 58.2455 54.7669 51.4068 48.1652 45.042 42.0372 39.151 36.3832 33.7338 31.203 28.7905 26.4966 24.3211 22.2641 20.3255 18.5054 16.8038 15.2207 13.756 12.4097 11.182 10.0726 9.0818 8.20942 7.45551 6.82006 6.30307 5.90454 5.62449 5.46289 5.41976 5.49509 5.68889 6.00115 6.43187 6.98106 7.64871 8.43483 9.33941 10.3625 11.504 12.7639 14.1424 15.6393 17.2546 18.9885 20.8407 22.8115 24.9007 27.1084 29.4346 31.8792 34.4422 37.1238 39.9238 42.8423 45.8792 49.0346 52.3084 55.7008 59.2115 62.8408 66.5885 70.4547 74.4393 78.5424 82.764 87.104 91.5625 96.1395 100.835 105.649 110.581 115.632 120.801 126.089 131.495 137.02 142.663 148.425 154.305 160.303 166.42 172.656 179.01 185.482 192.073 198.782 205.61 212.556 219.621 226.804 
88.7659 84.4257 80.2039 76.1006 72.1157 68.2493 64.5014 60.872 57.361 53.9684 50.6944 47.5387 44.5016 41.5829 38.7827 36.101 33.5377 31.0928 28.7665 26.5586 24.4691 22.4982 20.6457 18.9116 17.2961 15.7989 14.4203 13.1601 12.0184 10.9951 10.0903 9.30402 8.63615 8.08675 7.65581 7.34334 7.14933 7.07379 7.11671 7.27809 7.55794 7.95625 8.47302 9.10826 9.86196 10.7341 11.7248 12.8339 14.0614 15.4074 16.8719 18.4549 20.1563 21.9762 23.9145 25.9713 28.1466 30.4403 32.8525 35.3832 38.0323 40.7999 43.6859 46.6905 49.8134 53.0549 56.4148 59.8932 63.49 67.2053 71.0391 74.9913 79.062 83.2512 87.5588 91.9849 96.5294 101.192 105.974 110.874 115.892 121.029 126.284 131.658 137.151 142.761 148.49 154.338 160.304 166.389 172.592 178.913 185.353 191.912 198.589 205.384 212.298 219.33 226.481 233.75 241.138 
84.6362 80.4491 76.3804 72.4302 68.5984 64.8851 61.2903 57.8139 54.456 51.2166 48.0956 45.0931 42.209 39.4434 36.7963 34.2677 31.8575 29.5657 27.3925 25.3377 23.4013 21.5835 19.884 18.3031 16.8406 15.4966 14.271 13.164 12.1753 11.3052 10.5535 9.92023 9.40546 9.00915 8.73131 8.57193 8.53101 8.60856 8.80458 9.11905 9.55199 10.1034 10.7733 11.5616 12.4684 13.4937 14.6374 15.8996 17.2802 18.7793 20.3969 22.133 23.9875 25.9604 28.0519 30.2618 32.5901 35.037 37.6023 40.286 43.0882 46.0089 49.0481 52.2057 55.4818 58.8763 62.3893 66.0208 69.7707 73.6391 77.626 81.7313 85.9551 90.2973 94.758 99.3372 104.035 108.851 113.786 118.839 124.01 129.3 134.708 140.235 145.881 151.645 157.527 163.528 169.647 175.884 182.241 188.715 195.308 202.02 208.85 215.798 222.865 230.051 237.354 244.777 252.317 
82.08 77.9963 74.031 70.1842 66.4558 62.8459 59.3545 55.9816 52.7271 49.591 46.5735 43.6744 40.8937 38.2316 35.6878 33.2626 30.9558 28.7675 26.6976 24.7462 22.9133 21.1989 19.6029 18.1253 16.7663 15.5256 14.4035 13.3998 12.5146 11.7479 11.0996 10.5697 10.1584 9.86549 9.69105 9.63509 9.69758 9.87854 10.178 10.5959 11.1322 11.787 12.5603 13.452 14.4623 15.5909 16.8381 18.2037 19.6877 21.2903 23.0112 24.8507 26.8086 28.885 31.0798 33.3932 35.8249 38.3752 41.0439 43.831 46.7367 49.7608 52.9033 56.1644 59.5438 63.0418 66.6582 70.3931 74.2464 78.2182 82.3085 86.5172 90.8444 95.2901 99.8542 104.537 109.338 114.257 119.295 124.452 129.727 135.12 140.632 146.262 152.011 157.878 163.864 169.968 176.191 182.532 188.991 195.569 202.266 209.081 216.014 223.066 230.236 237.525 244.932 252.458 260.102 
80.6435 76.6218 72.7185 68.9337 65.2673 61.7194 58.29 54.979 51.7865 48.7125 45.757 42.9198 40.2012 37.601 35.1193 32.7561 30.5113 28.385 26.3771 24.4877 22.7168 21.0643 19.5303 18.1148 16.8177 15.6391 14.579 13.6373 12.8141 12.1093 11.5231 11.0552 10.7059 10.475 10.3625 10.3686 10.4931 10.736 11.0975 11.5773 12.1757 12.8925 13.7278 14.6815 15.7537 16.9444 18.2535 19.6811 21.2272 22.8917 24.6747 26.5762 28.5961 30.7345 32.9913 35.3666 37.8604 40.4727 43.2034 46.0525 49.0202 52.1063 55.3108 58.6338 62.0753 65.6353 69.3137 73.1106 77.0259 81.0597 85.212 89.4827 93.8719 98.3796 103.006 107.75 112.613 117.595 122.695 127.913 133.25 138.706 144.279 149.972 155.782 161.712 167.759 173.926 180.21 186.613 193.135 199.775 206.533 213.41 220.406 227.52 234.752 242.103 249.572 257.16 264.866 
79.9232 75.9339 72.063 68.3106 64.6766 61.1611 57.7641 54.4855 51.3254 48.2838 45.3606 42.5559 39.8697 37.3019 34.8526 32.5217 30.3094 28.2154 26.24 24.383 22.6444 21.0244 19.5228 18.1396 16.875 15.7287 14.701 13.7917 13.0009 12.3285 11.7746 11.3392 11.0222 10.8237 10.7437 10.7821 10.939 11.2144 11.6082 12.1205 12.7512 13.5004 14.3681 15.3542 16.4589 17.6819 19.0234 20.4834 22.0619 23.7588 25.5742 27.5081 29.5604 31.7312 34.0204 36.4281 38.9543 41.5989 44.362 47.2436 50.2436 53.3621 56.599 59.9545 63.4283 67.0207 70.7315 74.5608 78.5085 82.5747 86.7594 91.0625 95.4841 100.024 104.683 109.46 114.355 119.369 124.501 129.752 135.122 140.609 146.216 151.94 157.783 163.745 169.825 176.024 182.341 188.776 195.33 202.003 208.793 215.703 222.731 229.877 237.142 244.525 252.026 259.646 267.385 
79.609 75.6341 71.7777 68.0397 64.4202 60.9191 57.5366 54.2725 51.1268 48.0996 45.1909 42.4006 39.7289 37.1755 34.7407 32.4243 30.2263 28.1469 26.1858 24.3433 22.6192 21.0136 19.5264 18.1578 16.9075 15.7758 14.7625 13.8676 13.0913 12.4334 11.8939 11.4729 11.1704 10.9864 10.9208 10.9737 11.145 11.4348 11.8431 12.3698 13.015 13.7787 14.6608 15.6614 16.7805 18.018 19.374 20.8484 22.4413 24.1527 25.9825 27.9308 29.9976 32.1828 34.4865 36.9087 39.4493 42.1084 44.8859 47.7819 50.7964 53.9294 57.1808 60.5506 64.039 67.6458 71.371 75.2147 79.1769 83.2576 87.4567 91.7743 96.2103 100.765 105.438 110.229 115.139 120.168 125.314 130.58 135.963 141.466 147.086 152.825 158.683 164.659 170.754 176.967 183.298 189.748 196.316 203.003 209.809 216.732 223.775 230.935 238.215 245.612 253.128 260.763 268.516 
79.4933 75.5238 71.6727 67.9401 64.326 60.8303 57.4531 54.1944 51.0541 48.0323 45.129 42.3441 39.6777 37.1297 34.7002 32.3892 30.1966 28.1225 26.1669 24.3297 22.611 21.0108 19.529 18.1657 16.9208 15.7944 14.7865 13.897 13.126 12.4735 11.9394 11.5238 11.2267 11.048 10.9878 11.0461 11.2228 11.5179 11.9316 12.4637 13.1143 13.8833 14.7708 15.7768 16.9012 18.1441 19.5054 20.9852 22.5835 24.3003 26.1355 28.0892 30.1613 32.3519 34.661 37.0885 39.6345 42.2989 45.0819 47.9833 51.0031 54.1414 57.3982 60.7734 64.2671 67.8793 71.6099 75.459 79.4266 83.5126 87.7171 92.0401 96.4815 101.041 105.72 110.517 115.432 120.466 125.618 130.888 136.278 141.785 147.411 153.156 159.019 165 171.1 177.318 183.655 190.111 196.684 203.377 210.187 217.116 224.164 231.33 238.615 246.018 253.539 261.179 268.938 
79.4587 75.4908 71.6413 67.9103 64.2978 60.8038 57.4282 54.1711 51.0324 48.0122 45.1105 42.3272 39.6624 37.1161 34.6882 32.3788 30.1878 28.1153 26.1613 24.3258 22.6087 21.01 19.5299 18.1682 16.9249 15.8002 14.7938 13.906 13.1366 12.4857 11.9532 11.5393 11.2437 11.0667 11.0081 11.0679 11.2463 11.5431 11.9583 12.492 13.1442 13.9149 14.804 15.8116 16.9376 18.1821 19.5451 21.0265 22.6264 24.3448 26.1816 28.1369 30.2106 32.4029 34.7135 37.1427 39.6903 42.3564 45.1409 48.0439 51.0654 54.2053 57.4637 60.8406 64.3359 67.9497 71.6819 75.5326 79.5018 83.5894 87.7955 92.1201 96.5631 101.125 105.805 110.603 115.52 120.555 125.709 130.981 136.372 141.881 147.509 153.255 159.12 165.103 171.204 177.424 183.763 190.22 196.795 203.489 210.301 217.232 224.281 231.449 238.735 246.14 253.663 261.304 269.064 
79.4506 75.483 71.634 67.9034 64.2912 60.7976 57.4224 54.1656 51.0273 48.0075 45.1062 42.3233 39.6588 37.1129 34.6854 32.3763 30.1858 28.1137 26.16 24.3248 22.6081 21.0099 19.5301 18.1688 16.9259 15.8015 14.7956 13.9081 13.1391 12.4886 11.9565 11.5429 11.2477 11.071 11.0128 11.0731 11.2518 11.549 11.9646 12.4987 13.1513 13.9223 14.8118 15.8197 16.9461 18.191 19.5544 21.0362 22.6365 24.3552 26.1924 28.1481 30.2222 32.4148 34.7259 37.1554 39.7034 42.3698 45.1547 48.0581 51.08 54.2203 57.479 60.8563 64.352 67.9661 71.6988 75.5499 79.5194 83.6074 87.8139 92.1389 96.5823 101.144 105.824 110.623 115.541 120.576 125.73 131.003 136.394 141.904 147.532 153.278 159.143 165.127 171.229 177.449 183.788 190.245 196.821 203.515 210.328 217.259 224.309 231.477 238.763 246.168 253.692 261.334 269.094 
79.4492 75.4817 71.6327 67.9022 64.2901 60.7965 57.4213 54.1647 51.0264 48.0067 45.1054 42.3226 39.6582 37.1123 34.6849 32.3759 30.1854 28.1134 26.1598 24.3247 22.608 21.0098 19.5301 18.1689 16.9261 15.8017 14.7959 13.9085 13.1395 12.4891 11.9571 11.5435 11.2484 11.0718 11.0137 11.074 11.2527 11.55 11.9657 12.4998 13.1525 13.9236 14.8131 15.8211 16.9476 18.1926 19.556 21.0379 22.6382 24.357 26.1943 28.15 30.2242 32.4169 34.728 37.1576 39.7057 42.3722 45.1571 48.0606 51.0825 54.2229 57.4817 60.859 64.3548 67.969 71.7017 75.5529 79.5225 83.6106 87.8171 92.1421 96.5856 101.148 105.828 110.627 115.544 120.58 125.734 131.007 136.398 141.908 147.536 153.282 159.148 165.131 171.233 177.453 183.792 190.25 196.826 203.52 210.333 217.264 224.313 231.482 238.768 246.173 253.697 261.339 269.099 
79.449 75.4815 71.6325 67.902 64.29 60.7964 57.4212 54.1645 51.0263 48.0066 45.1053 42.3225 39.6581 37.1123 34.6848 32.3759 30.1854 28.1133 26.1598 24.3247 22.608 21.0098 19.5301 18.1689 16.9261 15.8018 14.7959 13.9085 13.1396 12.4891 11.9571 11.5436 11.2485 11.0719 11.0138 11.0741 11.2529 11.5501 11.9658 12.5 13.1526 13.9237 14.8133 15.8213 16.9478 18.1928 19.5562 21.0381 22.6384 24.3572 26.1945 28.1503 30.2245 32.4171 34.7283 37.1579 39.7059 42.3725 45.1574 48.0609 51.0828 54.2232 57.482 60.8593 64.3551 67.9694 71.7021 75.5532 79.5229 83.6109 87.8175 92.1425 96.586 101.148 105.828 110.627 115.545 120.58 125.735 131.007 136.399 141.908 147.536 153.283 159.148 165.132 171.234 177.454 183.793 190.25 196.826 203.52 210.333 217.264 224.314 231.482 238.769 246.174 253.697 261.339 269.1 
79.449 75.4815 71.6325 67.902 64.2899 60.7963 57.4212 54.1645 51.0263 48.0066 45.1053 42.3225 39.6581 37.1122 34.6848 32.3759 30.1854 28.1133 26.1598 24.3247 22.608 21.0098 19.5301 18.1689 16.9261 15.8018 14.7959 13.9085 13.1396 12.4891 11.9571 11.5436 11.2485 11.0719 11.0138 11.0741 11.2529 11.5501 11.9658 12.5 13.1526 13.9237 14.8133 15.8213 16.9478 18.1928 19.5562 21.0381 22.6384 24.3573 26.1945 28.1503 30.2245 32.4172 34.7283 37.1579 39.706 42.3725 45.1575 48.0609 51.0828 54.2232 57.4821 60.8594 64.3551 67.9694 71.7021 75.5533 79.5229 83.611 87.8175 92.1426 96.586 101.148 105.828 110.627 115.545 120.58 125.735 131.007 136.399 141.908 147.536 153.283 159.148 165.132 171.234 177.454 183.793 190.25 196.826 203.52 210.333 217.264 224.314 231.482 238.769 246.174 253.697 261.34 269.1 
79.449 75.4815 71.6325 67.902 64.2899 60.7963 57.4212 54.1645 51.0263 48.0066 45.1053 42.3225 39.6581 37.1122 34.6848 32.3759 30.1854 28.1133 26.1598 24.3247 22.608 21.0098 19.5301 18.1689 16.9261 15.8018 14.7959 13.9085 13.1396 12.4891 11.9571 11.5436 11.2485 11.0719 11.0138 11.0741 11.2529 11.5501 11.9658 12.5 13.1526 13.9237 14.8133 15.8213 16.9478 18.1928 19.5562 21.0381 22.6384 24.3573 26.1945 28.1503 30.2245 32.4172 34.7283 37.1579 39.706 42.3725 45.1575 48.0609 51.0828 54.2232 57.4821 60.8594 64.3552 67.9694 71.7021 75.5533 79.5229 83.611 87.8175 92.1426 96.586 101.148 105.828 110.627 115.545 120.58 125.735 131.007 136.399 141.908 147.536 153.283 159.148 165.132 171.234 177.454 183.793 190.25 196.826 203.52 210.333 217.264 224.314 231.482 238.769 246.174 253.698 261.34 269.1 
79.449 75.4815 71.6325 67.902 64.2899 60.7963 57.4212 54.1645 51.0263 48.0066 45.1053 42.3225 39.6581 37.1122 34.6848 32.3759 30.1854 28.1133 26.1598 24.3247 22.608 21.0098 19.5301 18.1689 16.9261 15.8018 14.7959 13.9085 13.1396 12.4891 11.9571 11.5436 11.2485 11.0719 11.0138 11.0741 11.2529 11.5501 11.9658 12.5 13.1526 13.9237 14.8133 15.8213 16.9478 18.1928 19.5562 21.0381 22.6384 24.3573 26.1945 28.1503 30.2245 32.4172 34.7283 37.1579 39.706 42.3725 45.1575 48.0609 51.0828 54.2232 57.4821 60.8594 64.3552 67.9694 71.7021 75.5533 79.5229 83.611 87.8175 92.1426 96.586 101.148 105.828 110.627 115.545 120.58 125.735 131.007 136.399 141.908 147.536 153.283 159.148 165.132 171.234 177.454 183.793 190.25 196.826 203.52 210.333 217.264 224.314 231.482 238.769 246.174 253.698 261.34 269.1 
79.449 75.4815 71.6325 67.902 64.2899 60.7963 57.4212 54.1645 51.0263 48.0066 45.1053 42.3225 39.6581 37.1122 34.6848 32.3759 30.1854 28.1133 26.1598 24.3247 22.608 21.0098 19.5301 18.1689 16.9261 15.8018 14.7959 13.9085 13.1396 12.4891 11.9571 11.5436 11.2485 11.0719 11.0138 11.0741 11.2529 11.5501 11.9658 12.5 13.1526 13.9237 14.8133 15.8213 16.9478 18.1928 19.5562 21.0381 22.6384 24.3573 26.1945 28.1503 30.2245 32.4172 34.7283 37.1579 39.706 42.3725 45.1575 48.0609 51.0828 54.2232 57.4821 60.8594 64.3552 67.9694 71.7021 75.5533 79.5229 83.611 87.8175 92.1426 96.586 101.148 105.828 110.627 115.545 120.58 125.735 131.007 136.399 141.908 147.536 153.283 159.148 165.132 171.234 177.454 183.793 190.25 196.826 203.52 210.333 217.264 224.314 231.482 238.769 246.174 253.698 261.34 269.1 
79.449 75.4815 71.6325 67.902 64.2899 60.7963 57.4212 54.1645 51.0263 48.0066 45.1053 42.3225 39.6581 37.1122 34.6848 32.3759 30.1854 28.1133 26.1598 24.3247 22.608 21.0098 19.5301 18.1689 16.9261 15.8018 14.7959 13.9085 13.1396 12.4891 11.9571 11.5436 11.2485 11.0719 11.0138 11.0741 11.2529 11.5501 11.9658 12.5 13.1526 13.9237 14.8133 15.8213 16.9478 18.1928 19.5562 21.0381 22.6384 24.3573 26.1945 28.1503 30.2245 32.4172 34.7283 37.1579 39.706 42.3725 45.1575 48.0609 51.0828 54.2232 57.4821 60.8594 64.3552 67.9694 71.7021 75.5533 79.5229 83.611 87.8175 92.1426 96.586 101.148 105.828 110.627 115.545 120.58 125.735 131.007 136.399 141.908 147.536 153.283 159.148 165.132 171.234 177.454 183.793 190.25 196.826 203.52 210.333 217.264 224.314 231.482 238.769 246.174 253.698 261.34 269.1 
79.449 75.4815 71.6325 67.902 64.2899 60.7963 57.4212 54.1645 51.0263 48.0066 45.1053 42.3225 39.6581 37.1122 34.6848 32.3759 30.1854 28.1133 26.1598 24.3247 22.608 21.0098 19.5301 18.1689 16.9261 15.8018 14.7959 13.9085 13.1396 12.4891 11.9571 11.5436 11.2485 11.0719 11.0138 11.0741 11.2529 11.5501 11.9658 12.5 13.1526 13.9237 14.8133 15.8213 16.9478 18.1928 19.5562 21.0381 22.6384 24.3573 26.1945 28.1503 30.2245 32.4172 34.7283 37.1579 39.706 42.3725 45.1575 48.0609 51.0828 54.2232 57.4821 60.8594 64.3552 67.9694 71.7021 75.5533 79.5229 83.611 87.8175 92.1426 96.586 101.148 105.828 110.627 115.545 120.58 125.735 131.007 136.399 141.908 147.536 153.283 159.148 165.132 171.234 177.454 183.793 190.25 196.826 203.52 210.333 217.264 224.314 231.482 238.769 246.174 253.698 261.34 269.1 
79.449 75.4815 71.6325 67.902 64.2899 60.7963 57.4212 54.1645 51.0263 48.0066 45.1053 42.3225 39.6581 37.1122 34.6848 32.3759 30.1854 28.1133 26.1598 24.3247 22.608 21.0098 19.5301 18.1689 16.9261 15.8018 14.7959 13.9085 13.1396 12.4891 11.9571 11.5436 11.2485 11.0719 11.0138 11.0741 11.2529 11.5501 11.9658 12.5 13.1526 13.9237 14.8133 15.8213 16.9478 18.1928 19.5562 21.0381 22.6384 24.3573 26.1945 28.1503 30.2245 32.4172 34.7283 37.1579 39.706 42.3725 45.1575 48.0609 51.0828 54.2232 57.4821 60.8594 64.3552 67.9694 71.7021 75.5533 79.5229 83.611 87.8175 92.1426 96.586 101.148 105.828 110.627 115.545 120.58 125.735 131.007 136.399 141.908 147.536 153.283 159.148 165.132 171.234 177.454 183.793 190.25 196.826 203.52 210.333 217.264 224.314 231.482 238.769 246.174 253.698 261.34 269.1 
79.449 75.4815 71.6325 67.902 64.2899 60.7963 57.4212 54.1645 51.0263 48.0066 45.1053 42.3225 39.6581 37.1122 34.6848 32.3759 30.1854 28.1133 26.1598 24.3247 22.608 21.0098 19.5301 18.1689 16.9261 15.8018 14.7959 13.9085 13.1396 12.4891 11.9571 11.5436 11.2485 11.0719 11.0138 11.0741 11.2529 11.5501 11.9658 12.5 13.1526 13.9237 14.8133 15.8213 16.9478 18.1928 19.5562 21.0381 22.6384 24.3573 26.1945 28.1503 30.2245 32.4172 34.7283 37.1579 39.706 42.3725 45.1575 48.0609 51.0828 54.2232 57.4821 60.8594 64.3552 67.9694 71.7021 75.5533 79.5229 83.611 87.8175 92.1426 96.586 101.148 105.828 110.627 115.545 120.58 125.735 131.007 136.399 141.908 147.536 153.283 159.148 165.132 171.234 177.454 183.793 190.25 196.826 203.52 210.333 217.264 224.314 231.482 238.769 246.174 253.698 261.34 269.1 
79.449 75.4815 71.6325 67.902 64.2899 60.7963 57.4212 54.1645 51.0263 48.0066 45.1053 42.3225 39.6581 37.1122 34.6848 32.3759 30.1854 28.1133 26.1598 24.3247 22.608 21.0098 19.5301 18.1689 16.9261 15.8018 14.7959 13.9085 13.1396 12.4891 11.9571 11.5436 11.2485 11.0719 11.0138 11.0741 11.2529 11.5501 11.9658 12.5 13.1526 13.9237 14.8133 15.8213 16.9478 18.1928 19.5562 21.0381 22.6384 24.3573 26.1945 28.1503 30.2245 32.4172 34.7283 37.1579 39.706 42.3725 45.1575 48.0609 51.0828 54.2232 57.4821 60.8594 64.3552 67.9694 71.7021 75.5533 79.5229 83.611 87.8175 92.1426 96.586 101.148 105.828 110.627 115.545 120.58 125.735 131.007 136.399 141.908 147.536 153.283 159.148 165.132 171.234 177.454 183.793 190.25 196.826 203.52 210.333 217.264 224.314 231.482 238.769 246.174 253.698 261.34 269.1 
79.449 75.4815 71.6325 67.902 64.2899 60.7963 57.4212 54.1645 51.0263 48.0066 45.1053 42.3225 39.6581 37.1122 34.6848 32.3759 30.1854 28.1133 26.1598 24.3247 22.608 21.0098 19.5301 18.1689 16.9261 15.8018 14.7959 13.9085 13.1396 12.4891 11.9571 11.5436 11.2485 11.0719 11.0138 11.0741 11.2529 11.5501 11.9658 12.5 13.1526 13.9237 14.8133 15.8213 16.9478 18.1928 19.5562 21.0381 22.6384 24.3573 26.1945 28.1503 30.2245 32.4172 34.7283 37.1579 39.706 42.3725 45.1575 48.0609 51.0828 54.2232 57.4821 60.8594 64.3552 67.9694 71.7021 75.5533 79.5229 83.611 87.8175 92.1426 96.586 101.148 105.828 110.627 115.545 120.58 125.735 131.007 136.399 141.908 147.536 153.283 159.148 165.132 171.234 177.454 183.793 190.25 196.826 203.52 210.333 217.264 224.314 231.482 238.769 246.174 253.698 261.34 269.1 
